# Pulseq sequence file
# Created by PyPulseq

[VERSION]
major 1
minor 4
revision 0

[DEFINITIONS]
AdcRasterTime 1e-07 
BlockDurationRaster 1e-05 
FOV 0.256 0.256 0.01 
Flipangle 10 
GradientRasterTime 1e-05 
RadiofrequencyRasterTime 1e-06 
TE 0.001 
TR 0.01695 
b0 3 
b1 0.5 
delta 2.39996323 
k_space_encoding1 1 
m0_offset 200 
n_dummies_between_offsets 200 
n_k0 1227 
n_readouts_per_slice 10 
n_spirals_for_traj_calculation 12 
name 20250317_BA_simulationCEST_spiral_multi_2D_256mm_1227k0_1slices_10interleaves_0p1ms_0.5uT_12spirals_10angle 
num_meas 3 
number_of_readouts 256 
offsets_ppm 200 5.5 5 
sampling_scheme spiral 
tp 0.1 

# Format of blocks:
# NUM DUR RF  GX  GY  GZ  ADC  EXT
[BLOCKS]
   1 10013   1   0   0   0  0  0
   2 150   0   1   1   1  0  0
   3 128   0   0   0   0  0  0
   4 1229   0   2   3   0  0  0
   5  89   0   4   5   6  0  0
   6  11   0   0   0   0  0  0
   7   1   0   0   0   0  0  0
   8 10013   2   0   0   0  0  0
   9 150   0   1   1   1  0  0
  10 128   0   0   0   0  0  0
  11 1229   0   2   3   0  0  0
  12  89   0   4   5   6  0  0
  13  11   0   0   0   0  0  0
  14   1   0   0   0   0  0  0
  15 10013   3   0   0   0  0  0
  16 150   0   1   1   1  0  0
  17 128   0   0   0   0  0  0
  18 1229   0   2   3   0  0  0
  19  89   0   4   5   6  0  0
  20  11   0   0   0   0  0  0
  21   1   0   0   0   0  0  0
  22 10013   4   0   0   0  0  0
  23 150   0   1   1   1  0  0
  24 128   0   0   0   0  0  0
  25 1229   0   2   3   0  0  0
  26  89   0   4   5   6  0  0
  27  11   0   0   0   0  0  0
  28   1   0   0   0   0  0  0
  29 10013   5   0   0   0  0  0
  30 150   0   1   1   1  0  0
  31 128   0   0   0   0  0  0
  32 1229   0   2   3   0  0  0
  33  89   0   4   5   6  0  0
  34  11   0   0   0   0  0  0
  35   1   0   0   0   0  0  0
  36 10013   6   0   0   0  0  0
  37 150   0   1   1   1  0  0
  38 128   0   0   0   0  0  0
  39 1229   0   2   3   0  0  0
  40  89   0   4   5   6  0  0
  41  11   0   0   0   0  0  0
  42   1   0   0   0   0  0  0
  43 10013   7   0   0   0  0  0
  44 150   0   1   1   1  0  0
  45 128   0   0   0   0  0  0
  46 1229   0   2   3   0  0  0
  47  89   0   4   5   6  0  0
  48  11   0   0   0   0  0  0
  49   1   0   0   0   0  0  0
  50 10013   8   0   0   0  0  0
  51 150   0   1   1   1  0  0
  52 128   0   0   0   0  0  0
  53 1229   0   2   3   0  0  0
  54  89   0   4   5   6  0  0
  55  11   0   0   0   0  0  0
  56   1   0   0   0   0  0  0
  57 10013   9   0   0   0  0  0
  58 150   0   1   1   1  0  0
  59 146  10   0   0   7  0  0
  60  46   0   0   0   8  0  0
  61 1229   0   2   3   0  0  0
  62  89   0   4   5   6  0  0
  63  11   0   0   0   0  0  0
  64   1   0   0   0   0  0  0
  65 10013  11   0   0   0  0  0
  66 150   0   1   1   1  0  0
  67 128   0   0   0   0  0  0
  68 1229   0   2   3   0  0  0
  69  89   0   4   5   6  0  0
  70  11   0   0   0   0  0  0
  71   1   0   0   0   0  0  0
  72 10013   6   0   0   0  0  0
  73 150   0   1   1   1  0  0
  74 128   0   0   0   0  0  0
  75 1229   0   2   3   0  0  0
  76  89   0   4   5   6  0  0
  77  11   0   0   0   0  0  0
  78   1   0   0   0   0  0  0
  79 10013  12   0   0   0  0  0
  80 150   0   1   1   1  0  0
  81 128   0   0   0   0  0  0
  82 1229   0   2   3   0  0  0
  83  89   0   4   5   6  0  0
  84  11   0   0   0   0  0  0
  85   1   0   0   0   0  0  0
  86 10013  13   0   0   0  0  0
  87 150   0   1   1   1  0  0
  88 128   0   0   0   0  0  0
  89 1229   0   2   3   0  0  0
  90  89   0   4   5   6  0  0
  91  11   0   0   0   0  0  0
  92   1   0   0   0   0  0  0
  93 10013  14   0   0   0  0  0
  94 150   0   1   1   1  0  0
  95 128   0   0   0   0  0  0
  96 1229   0   2   3   0  0  0
  97  89   0   4   5   6  0  0
  98  11   0   0   0   0  0  0
  99   1   0   0   0   0  0  0
 100 10013  15   0   0   0  0  0
 101 150   0   1   1   1  0  0
 102 128   0   0   0   0  0  0
 103 1229   0   2   3   0  0  0
 104  89   0   4   5   6  0  0
 105  11   0   0   0   0  0  0
 106   1   0   0   0   0  0  0
 107 10013   1   0   0   0  0  0
 108 150   0   1   1   1  0  0
 109 128   0   0   0   0  0  0
 110 1229   0   2   3   0  0  0
 111  89   0   4   5   6  0  0
 112  11   0   0   0   0  0  0
 113   1   0   0   0   0  0  0
 114 10013  16   0   0   0  0  0
 115 150   0   1   1   1  0  0
 116 128   0   0   0   0  0  0
 117 1229   0   9  10   0  0  0
 118  92   0  11  12   6  0  0
 119   8   0   0   0   0  0  0
 120   1   0   0   0   0  0  0
 121 10013  17   0   0   0  0  0
 122 150   0   1   1   1  0  0
 123 128   0   0   0   0  0  0
 124 1229   0   9  10   0  0  0
 125  92   0  11  12   6  0  0
 126   8   0   0   0   0  0  0
 127   1   0   0   0   0  0  0
 128 10013  14   0   0   0  0  0
 129 150   0   1   1   1  0  0
 130 128   0   0   0   0  0  0
 131 1229   0   9  10   0  0  0
 132  92   0  11  12   6  0  0
 133   8   0   0   0   0  0  0
 134   1   0   0   0   0  0  0
 135 10013  18   0   0   0  0  0
 136 150   0   1   1   1  0  0
 137 128   0   0   0   0  0  0
 138 1229   0   9  10   0  0  0
 139  92   0  11  12   6  0  0
 140   8   0   0   0   0  0  0
 141   1   0   0   0   0  0  0
 142 10013   5   0   0   0  0  0
 143 150   0   1   1   1  0  0
 144 128   0   0   0   0  0  0
 145 1229   0   9  10   0  0  0
 146  92   0  11  12   6  0  0
 147   8   0   0   0   0  0  0
 148   1   0   0   0   0  0  0
 149 10013  19   0   0   0  0  0
 150 150   0   1   1   1  0  0
 151 128   0   0   0   0  0  0
 152 1229   0   9  10   0  0  0
 153  92   0  11  12   6  0  0
 154   8   0   0   0   0  0  0
 155   1   0   0   0   0  0  0
 156 10013  20   0   0   0  0  0
 157 150   0   1   1   1  0  0
 158 128   0   0   0   0  0  0
 159 1229   0   9  10   0  0  0
 160  92   0  11  12   6  0  0
 161   8   0   0   0   0  0  0
 162   1   0   0   0   0  0  0
 163 10013   9   0   0   0  0  0
 164 150   0   1   1   1  0  0
 165 128   0   0   0   0  0  0
 166 1229   0   9  10   0  0  0
 167  92   0  11  12   6  0  0
 168   8   0   0   0   0  0  0
 169   1   0   0   0   0  0  0
 170 10013  21   0   0   0  0  0
 171 150   0   1   1   1  0  0
 172 146  22   0   0   7  0  0
 173  46   0   0   0   8  0  0
 174 1229   0   9  10   0  0  0
 175  92   0  11  12   6  0  0
 176   8   0   0   0   0  0  0
 177   1   0   0   0   0  0  0
 178 10013  11   0   0   0  0  0
 179 150   0   1   1   1  0  0
 180 128   0   0   0   0  0  0
 181 1229   0   9  10   0  0  0
 182  92   0  11  12   6  0  0
 183   8   0   0   0   0  0  0
 184   1   0   0   0   0  0  0
 185 10013  19   0   0   0  0  0
 186 150   0   1   1   1  0  0
 187 128   0   0   0   0  0  0
 188 1229   0   9  10   0  0  0
 189  92   0  11  12   6  0  0
 190   8   0   0   0   0  0  0
 191   1   0   0   0   0  0  0
 192 10013  23   0   0   0  0  0
 193 150   0   1   1   1  0  0
 194 128   0   0   0   0  0  0
 195 1229   0   9  10   0  0  0
 196  92   0  11  12   6  0  0
 197   8   0   0   0   0  0  0
 198   1   0   0   0   0  0  0
 199 10013   4   0   0   0  0  0
 200 150   0   1   1   1  0  0
 201 128   0   0   0   0  0  0
 202 1229   0   9  10   0  0  0
 203  92   0  11  12   6  0  0
 204   8   0   0   0   0  0  0
 205   1   0   0   0   0  0  0
 206 10013  24   0   0   0  0  0
 207 150   0   1   1   1  0  0
 208 128   0   0   0   0  0  0
 209 1229   0   9  10   0  0  0
 210  92   0  11  12   6  0  0
 211   8   0   0   0   0  0  0
 212   1   0   0   0   0  0  0
 213 10013  15   0   0   0  0  0
 214 150   0   1   1   1  0  0
 215 128   0   0   0   0  0  0
 216 1229   0   9  10   0  0  0
 217  92   0  11  12   6  0  0
 218   8   0   0   0   0  0  0
 219   1   0   0   0   0  0  0
 220 10013  16   0   0   0  0  0
 221 150   0   1   1   1  0  0
 222 128   0   0   0   0  0  0
 223 1229   0   9  10   0  0  0
 224  92   0  11  12   6  0  0
 225   8   0   0   0   0  0  0
 226   1   0   0   0   0  0  0
 227 10013  25   0   0   0  0  0
 228 150   0   1   1   1  0  0
 229 128   0   0   0   0  0  0
 230 1229   0  13  14   0  0  0
 231  87   0  15  16   6  0  0
 232  13   0   0   0   0  0  0
 233   1   0   0   0   0  0  0
 234 10013   2   0   0   0  0  0
 235 150   0   1   1   1  0  0
 236 128   0   0   0   0  0  0
 237 1229   0  13  14   0  0  0
 238  87   0  15  16   6  0  0
 239  13   0   0   0   0  0  0
 240   1   0   0   0   0  0  0
 241 10013  24   0   0   0  0  0
 242 150   0   1   1   1  0  0
 243 128   0   0   0   0  0  0
 244 1229   0  13  14   0  0  0
 245  87   0  15  16   6  0  0
 246  13   0   0   0   0  0  0
 247   1   0   0   0   0  0  0
 248 10013  18   0   0   0  0  0
 249 150   0   1   1   1  0  0
 250 128   0   0   0   0  0  0
 251 1229   0  13  14   0  0  0
 252  87   0  15  16   6  0  0
 253  13   0   0   0   0  0  0
 254   1   0   0   0   0  0  0
 255 10013  12   0   0   0  0  0
 256 150   0   1   1   1  0  0
 257 128   0   0   0   0  0  0
 258 1229   0  13  14   0  0  0
 259  87   0  15  16   6  0  0
 260  13   0   0   0   0  0  0
 261   1   0   0   0   0  0  0
 262 10013  26   0   0   0  0  0
 263 150   0   1   1   1  0  0
 264 128   0   0   0   0  0  0
 265 1229   0  13  14   0  0  0
 266  87   0  15  16   6  0  0
 267  13   0   0   0   0  0  0
 268   1   0   0   0   0  0  0
 269 10013   7   0   0   0  0  0
 270 150   0   1   1   1  0  0
 271 128   0   0   0   0  0  0
 272 1229   0  13  14   0  0  0
 273  87   0  15  16   6  0  0
 274  13   0   0   0   0  0  0
 275   1   0   0   0   0  0  0
 276 10013  21   0   0   0  0  0
 277 150   0   1   1   1  0  0
 278 128   0   0   0   0  0  0
 279 1229   0  13  14   0  0  0
 280  87   0  15  16   6  0  0
 281  13   0   0   0   0  0  0
 282   1   0   0   0   0  0  0
 283 10013  21   0   0   0  0  0
 284 150   0   1   1   1  0  0
 285 146  22   0   0   7  0  0
 286  46   0   0   0   8  0  0
 287 1229   0  13  14   0  0  0
 288  87   0  15  16   6  0  0
 289  13   0   0   0   0  0  0
 290   1   0   0   0   0  0  0
 291 10013   7   0   0   0  0  0
 292 150   0   1   1   1  0  0
 293 128   0   0   0   0  0  0
 294 1229   0  13  14   0  0  0
 295  87   0  15  16   6  0  0
[RF]
1      39.7968 1 2 0 100 25545.8 0
2      39.7968 1 2 0 100 25545.8 2.04204
3      39.7968 1 2 0 100 25545.8 6.12611
4      39.7968 1 2 0 100 25545.8 5.96903
5      39.7968 1 2 0 100 25545.8 1.5708
6      39.7968 1 2 0 100 25545.8 5.49779
7      39.7968 1 2 0 100 25545.8 5.18363
8      39.7968 1 2 0 100 25545.8 0.628319
9      39.7968 1 2 0 100 25545.8 4.39823
10      85.7162 9 10 0 100 -1562.5 4.39823
11      39.7968 1 2 0 100 25545.8 3.92699
12      39.7968 1 2 0 100 25545.8 2.82743
13      39.7968 1 2 0 100 25545.8 2.19911
14      39.7968 1 2 0 100 25545.8 3.61283
15      39.7968 1 2 0 100 25545.8 0.785398
16      39.7968 1 2 0 100 25545.8 1.25664
17      39.7968 1 2 0 100 25545.8 4.55531
18      39.7968 1 2 0 100 25545.8 4.71239
19      39.7968 1 2 0 100 25545.8 0.471239
20      39.7968 1 2 0 100 25545.8 1.41372
21      39.7968 1 2 0 100 25545.8 3.14159
22      85.7162 9 10 0 100 -1562.5 3.14159
23      39.7968 1 2 0 100 25545.8 5.34071
24      39.7968 1 2 0 100 25545.8 2.35619
25      39.7968 1 2 0 100 25545.8 3.76991
26      39.7968 1 2 0 100 25545.8 2.98451
27      85.7162 9 10 0 100 -1562.5 0.628319
28      39.7968 1 2 0 100 702.511 0
29      39.7968 1 2 0 100 702.511 2.04204
30      39.7968 1 2 0 100 702.511 6.12611
31      39.7968 1 2 0 100 702.511 5.96903
32      39.7968 1 2 0 100 702.511 1.5708
33      39.7968 1 2 0 100 702.511 5.49779
34      39.7968 1 2 0 100 702.511 5.18363
35      39.7968 1 2 0 100 702.511 0.628319
36      39.7968 1 2 0 100 702.511 4.39823
37      39.7968 1 2 0 100 702.511 3.92699
38      39.7968 1 2 0 100 702.511 2.82743
39      39.7968 1 2 0 100 702.511 2.19911
40      39.7968 1 2 0 100 702.511 3.61283
41      39.7968 1 2 0 100 702.511 0.785398
42      39.7968 1 2 0 100 702.511 1.25664
43      39.7968 1 2 0 100 702.511 4.55531
44      39.7968 1 2 0 100 702.511 4.71239
45      39.7968 1 2 0 100 702.511 0.471239
46      39.7968 1 2 0 100 702.511 1.41372
47      39.7968 1 2 0 100 702.511 3.14159
48      39.7968 1 2 0 100 702.511 5.34071
49      39.7968 1 2 0 100 702.511 2.35619
50      39.7968 1 2 0 100 702.511 3.76991
51      39.7968 1 2 0 100 702.511 2.98451
52      39.7968 1 2 0 100 638.646 0
53      39.7968 1 2 0 100 638.646 2.04204
54      39.7968 1 2 0 100 638.646 6.12611
55      39.7968 1 2 0 100 638.646 5.96903
56      39.7968 1 2 0 100 638.646 1.5708
57      39.7968 1 2 0 100 638.646 5.49779
58      39.7968 1 2 0 100 638.646 5.18363
59      39.7968 1 2 0 100 638.646 0.628319
60      39.7968 1 2 0 100 638.646 4.39823
61      39.7968 1 2 0 100 638.646 3.92699
62      39.7968 1 2 0 100 638.646 2.82743
63      39.7968 1 2 0 100 638.646 2.19911
64      39.7968 1 2 0 100 638.646 3.61283
65      39.7968 1 2 0 100 638.646 0.785398
66      39.7968 1 2 0 100 638.646 1.25664
67      39.7968 1 2 0 100 638.646 4.55531
68      39.7968 1 2 0 100 638.646 4.71239
69      39.7968 1 2 0 100 638.646 0.471239
70      39.7968 1 2 0 100 638.646 1.41372
71      39.7968 1 2 0 100 638.646 3.14159
72      39.7968 1 2 0 100 638.646 5.34071
73      39.7968 1 2 0 100 638.646 2.35619
74      39.7968 1 2 0 100 638.646 3.76991
75      39.7968 1 2 0 100 638.646 2.98451

# Format of arbitrary gradients:
#   time_shape_id of 0 means default timing (stepping with grad_raster starting at 1/2 of grad_raster)
# id amplitude amp_shape_id time_shape_id delay
# ..      Hz/m       ..         ..          us
[GRADIENTS]
2 -1.13805e+06 3 0 10
3 -1.34813e+06 4 0 10
4 -1.13805e+06 5 6 0
5  1.44762e+06 7 8 0
9  1.22267e+06 11 0 10
10  -1.3802e+06 12 0 10
11  1.40732e+06 13 14 0
12 -1.35612e+06 15 16 0
13 -1.33747e+06 17 0 10
14  1.20333e+06 18 0 10
15  1.44093e+06 19 20 0
16  1.20712e+06 21 22 0
17 -1.37647e+06 23 0 10
18 -1.21103e+06 24 0 10
19  -1.3246e+06 25 26 0
20 -1.42693e+06 27 28 0
21   1.2594e+06 29 0 10
22  1.32272e+06 30 0 10
23   1.2594e+06 31 32 0
24 -1.45407e+06 33 34 0
25 -1.19971e+06 35 0 10
26  1.37278e+06 36 0 10
27 -1.37437e+06 37 38 0
28  1.32453e+06 39 40 0
29  1.30791e+06 41 0 10
30 -1.30583e+06 42 0 10
31 -1.45622e+06 43 44 0
32 -1.30583e+06 45 46 0
33  1.36912e+06 47 0 10
34  1.18859e+06 48 0 10
35  1.35728e+06 49 50 0
36  1.34801e+06 51 52 0
37 -1.34225e+06 53 0 10
38 -1.29331e+06 54 0 10
39 -1.34225e+06 55 56 0
40   1.4373e+06 57 58 0
41  1.17794e+06 59 0 10
42 -1.36549e+06 60 0 10
43  1.38883e+06 61 62 0
44 -1.38125e+06 63 64 0

# Format of trapezoid gradients:
# id amplitude rise flat fall delay
# ..      Hz/m   us   us   us    us
[TRAP]
 1   2.1288e+06 500  500 500   0
 6       892857 210    0 210   0
 7       312500  80 1280  80  20
 8      -923913 230    0 230   0

# Format of ADC events:
# id num dwell delay freq phase
# ..  ..    ns    us   Hz   rad
[ADC]
1 1227 10000 10 0 0

# Sequence Shapes
[SHAPES]

shape_id 1
num_samples 100000
7e-06
1.4e-05
1.4e-05
10
1.41e-05
1.4e-05
1.4e-05
7
1.41e-05
1.4e-05
1.4e-05
4
1.41e-05
1.4e-05
1.4e-05
2
1.41e-05
1.4e-05
1.4e-05
2
1.41e-05
1.4e-05
1.4e-05
1
1.41e-05
1.4e-05
1.4e-05
1
1.41e-05
1.4e-05
1.4e-05
1
1.41e-05
1.4e-05
1.4e-05
0
1.41e-05
1.4e-05
1.4e-05
0
1.41e-05
1.4e-05
1.4e-05
0
1.41e-05
1.4e-05
1.4e-05
0
1.41e-05
1.4e-05
1.4e-05
0
1.41e-05
1.4e-05
1.41e-05
1.4e-05
1.4e-05
0
1.41e-05
1.4e-05
1.41e-05
1.4e-05
1.4e-05
0
1.41e-05
1.4e-05
1.41e-05
1.4e-05
1.41e-05
1.4e-05
1.41e-05
1.4e-05
1.4e-05
0
1.41e-05
1.4e-05
1.41e-05
1.4e-05
1.41e-05
1.4e-05
1.41e-05
1.4e-05
1.41e-05
1.41e-05
0
1.4e-05
1.41e-05
1.4e-05
1.41e-05
1.4e-05
1.41e-05
1.4e-05
1.41e-05
1.41e-05
0
1.4e-05
1.41e-05
1.4e-05
1.41e-05
1.41e-05
0
1.4e-05
1.41e-05
1.4e-05
1.41e-05
1.41e-05
0
1.4e-05
1.41e-05
1.41e-05
0
1.4e-05
1.41e-05
1.41e-05
0
1.4e-05
1.41e-05
1.41e-05
0
1.4e-05
1.41e-05
1.41e-05
1
1.4e-05
1.41e-05
1.41e-05
0
1.4e-05
1.41e-05
1.41e-05
1
1.4e-05
1.41e-05
1.41e-05
2
1.4e-05
1.41e-05
1.41e-05
2
1.4e-05
1.41e-05
1.41e-05
2
1.4e-05
1.41e-05
1.41e-05
5
1.4e-05
1.41e-05
1.41e-05
10
1.4e-05
1.41e-05
1.41e-05
12
1.42e-05
1.41e-05
1.41e-05
9
1.42e-05
1.41e-05
1.41e-05
5
1.42e-05
1.41e-05
1.41e-05
3
1.42e-05
1.41e-05
1.41e-05
2
1.42e-05
1.41e-05
1.41e-05
1
1.42e-05
1.41e-05
1.41e-05
1
1.42e-05
1.41e-05
1.41e-05
1
1.42e-05
1.41e-05
1.41e-05
0
1.42e-05
1.41e-05
1.41e-05
0
1.42e-05
1.41e-05
1.41e-05
0
1.42e-05
1.41e-05
1.41e-05
0
1.42e-05
1.41e-05
1.41e-05
0
1.42e-05
1.41e-05
1.41e-05
0
1.42e-05
1.41e-05
1.42e-05
1.41e-05
1.41e-05
0
1.42e-05
1.41e-05
1.42e-05
1.41e-05
1.42e-05
1.41e-05
1.42e-05
1.41e-05
1.41e-05
0
1.42e-05
1.41e-05
1.42e-05
1.41e-05
1.42e-05
1.41e-05
1.42e-05
1.41e-05
1.42e-05
1.41e-05
1.42e-05
1.41e-05
1.42e-05
1.41e-05
1.42e-05
1.42e-05
0
1.41e-05
1.42e-05
1.41e-05
1.42e-05
1.41e-05
1.42e-05
1.42e-05
0
1.41e-05
1.42e-05
1.41e-05
1.42e-05
1.42e-05
0
1.41e-05
1.42e-05
1.41e-05
1.42e-05
1.42e-05
0
1.41e-05
1.42e-05
1.42e-05
0
1.41e-05
1.42e-05
1.42e-05
0
1.41e-05
1.42e-05
1.42e-05
1
1.41e-05
1.42e-05
1.42e-05
0
1.41e-05
1.42e-05
1.42e-05
1
1.41e-05
1.42e-05
1.42e-05
1
1.41e-05
1.42e-05
1.42e-05
2
1.41e-05
1.42e-05
1.42e-05
2
1.41e-05
1.42e-05
1.42e-05
4
1.41e-05
1.42e-05
1.42e-05
6
1.41e-05
1.42e-05
1.42e-05
26
1.43e-05
1.42e-05
1.42e-05
6
1.43e-05
1.42e-05
1.42e-05
4
1.43e-05
1.42e-05
1.42e-05
2
1.43e-05
1.42e-05
1.42e-05
2
1.43e-05
1.42e-05
1.42e-05
1
1.43e-05
1.42e-05
1.42e-05
1
1.43e-05
1.42e-05
1.42e-05
0
1.43e-05
1.42e-05
1.42e-05
1
1.43e-05
1.42e-05
1.42e-05
0
1.43e-05
1.42e-05
1.42e-05
0
1.43e-05
1.42e-05
1.42e-05
0
1.43e-05
1.42e-05
1.43e-05
1.42e-05
1.42e-05
0
1.43e-05
1.42e-05
1.43e-05
1.42e-05
1.42e-05
0
1.43e-05
1.42e-05
1.43e-05
1.42e-05
1.43e-05
1.42e-05
1.42e-05
0
1.43e-05
1.42e-05
1.43e-05
1.42e-05
1.43e-05
1.42e-05
1.43e-05
1.42e-05
1.43e-05
1.42e-05
1.43e-05
1.42e-05
1.43e-05
1.42e-05
1.43e-05
1.42e-05
1.43e-05
1.43e-05
0
1.42e-05
1.43e-05
1.42e-05
1.43e-05
1.42e-05
1.43e-05
1.43e-05
0
1.42e-05
1.43e-05
1.42e-05
1.43e-05
1.43e-05
0
1.42e-05
1.43e-05
1.43e-05
0
1.42e-05
1.43e-05
1.43e-05
0
1.42e-05
1.43e-05
1.43e-05
0
1.42e-05
1.43e-05
1.43e-05
0
1.42e-05
1.43e-05
1.43e-05
0
1.42e-05
1.43e-05
1.43e-05
1
1.42e-05
1.43e-05
1.43e-05
1
1.42e-05
1.43e-05
1.43e-05
2
1.42e-05
1.43e-05
1.43e-05
2
1.42e-05
1.43e-05
1.43e-05
2
1.42e-05
1.43e-05
1.43e-05
5
1.42e-05
1.43e-05
1.43e-05
14
1.42e-05
1.43e-05
1.43e-05
2
1.44e-05
1.43e-05
1.43e-05
13
1.44e-05
1.43e-05
1.43e-05
5
1.44e-05
1.43e-05
1.43e-05
3
1.44e-05
1.43e-05
1.43e-05
2
1.44e-05
1.43e-05
1.43e-05
1
1.44e-05
1.43e-05
1.43e-05
1
1.44e-05
1.43e-05
1.43e-05
1
1.44e-05
1.43e-05
1.43e-05
0
1.44e-05
1.43e-05
1.43e-05
1
1.44e-05
1.43e-05
1.43e-05
0
1.44e-05
1.43e-05
1.44e-05
1.43e-05
1.43e-05
0
1.44e-05
1.43e-05
1.43e-05
0
1.44e-05
1.43e-05
1.44e-05
1.43e-05
1.43e-05
0
1.44e-05
1.43e-05
1.44e-05
1.43e-05
1.43e-05
0
1.44e-05
1.43e-05
1.44e-05
1.43e-05
1.44e-05
1.43e-05
1.44e-05
1.43e-05
1.44e-05
1.43e-05
1.44e-05
1.43e-05
1.44e-05
1.43e-05
1.44e-05
1.43e-05
1.44e-05
1.43e-05
1.44e-05
1.43e-05
1.44e-05
1.44e-05
0
1.43e-05
1.44e-05
1.43e-05
1.44e-05
1.43e-05
1.44e-05
1.44e-05
0
1.43e-05
1.44e-05
1.43e-05
1.44e-05
1.44e-05
0
1.43e-05
1.44e-05
1.44e-05
0
1.43e-05
1.44e-05
1.44e-05
0
1.43e-05
1.44e-05
1.44e-05
0
1.43e-05
1.44e-05
1.44e-05
0
1.43e-05
1.44e-05
1.44e-05
1
1.43e-05
1.44e-05
1.44e-05
0
1.43e-05
1.44e-05
1.44e-05
2
1.43e-05
1.44e-05
1.44e-05
1
1.43e-05
1.44e-05
1.44e-05
2
1.43e-05
1.44e-05
1.44e-05
4
1.43e-05
1.44e-05
1.44e-05
6
1.43e-05
1.44e-05
1.44e-05
27
1.45e-05
1.44e-05
1.44e-05
6
1.45e-05
1.44e-05
1.44e-05
3
1.45e-05
1.44e-05
1.44e-05
3
1.45e-05
1.44e-05
1.44e-05
1
1.45e-05
1.44e-05
1.44e-05
1
1.45e-05
1.44e-05
1.44e-05
1
1.45e-05
1.44e-05
1.44e-05
1
1.45e-05
1.44e-05
1.44e-05
0
1.45e-05
1.44e-05
1.44e-05
0
1.45e-05
1.44e-05
1.44e-05
0
1.45e-05
1.44e-05
1.44e-05
0
1.45e-05
1.44e-05
1.44e-05
0
1.45e-05
1.44e-05
1.45e-05
1.44e-05
1.44e-05
0
1.45e-05
1.44e-05
1.45e-05
1.44e-05
1.45e-05
1.44e-05
1.44e-05
0
1.45e-05
1.44e-05
1.45e-05
1.44e-05
1.45e-05
1.44e-05
1.45e-05
1.44e-05
1.45e-05
1.44e-05
1.45e-05
1.44e-05
1.45e-05
1.44e-05
1.45e-05
1.44e-05
1.45e-05
1.44e-05
1.45e-05
1.45e-05
0
1.44e-05
1.45e-05
1.44e-05
1.45e-05
1.44e-05
1.45e-05
1.45e-05
0
1.44e-05
1.45e-05
1.44e-05
1.45e-05
1.45e-05
0
1.44e-05
1.45e-05
1.45e-05
0
1.44e-05
1.45e-05
1.45e-05
0
1.44e-05
1.45e-05
1.45e-05
0
1.44e-05
1.45e-05
1.45e-05
0
1.44e-05
1.45e-05
1.45e-05
1
1.44e-05
1.45e-05
1.45e-05
0
1.44e-05
1.45e-05
1.45e-05
1
1.44e-05
1.45e-05
1.45e-05
2
1.44e-05
1.45e-05
1.45e-05
2
1.44e-05
1.45e-05
1.45e-05
4
1.44e-05
1.45e-05
1.45e-05
5
1.44e-05
1.45e-05
1.45e-05
29
1.46e-05
1.45e-05
1.45e-05
5
1.46e-05
1.45e-05
1.45e-05
4
1.46e-05
1.45e-05
1.45e-05
2
1.46e-05
1.45e-05
1.45e-05
2
1.46e-05
1.45e-05
1.45e-05
1
1.46e-05
1.45e-05
1.45e-05
0
1.46e-05
1.45e-05
1.45e-05
1
1.46e-05
1.45e-05
1.45e-05
0
1.46e-05
1.45e-05
1.45e-05
0
1.46e-05
1.45e-05
1.45e-05
0
1.46e-05
1.45e-05
1.45e-05
0
1.46e-05
1.45e-05
1.45e-05
0
1.46e-05
1.45e-05
1.46e-05
1.45e-05
1.45e-05
0
1.46e-05
1.45e-05
1.46e-05
1.45e-05
1.46e-05
1.45e-05
1.45e-05
0
1.46e-05
1.45e-05
1.46e-05
1.45e-05
1.46e-05
1.45e-05
1.46e-05
1.45e-05
1.46e-05
1.45e-05
1.46e-05
1.45e-05
1.46e-05
1.45e-05
1.46e-05
1.45e-05
1.46e-05
1.45e-05
1.46e-05
1.46e-05
0
1.45e-05
1.46e-05
1.45e-05
1.46e-05
1.45e-05
1.46e-05
1.46e-05
0
1.45e-05
1.46e-05
1.46e-05
0
1.45e-05
1.46e-05
1.45e-05
1.46e-05
1.46e-05
0
1.45e-05
1.46e-05
1.46e-05
0
1.45e-05
1.46e-05
1.46e-05
0
1.45e-05
1.46e-05
1.46e-05
1
1.45e-05
1.46e-05
1.46e-05
0
1.45e-05
1.46e-05
1.46e-05
1
1.45e-05
1.46e-05
1.46e-05
1
1.45e-05
1.46e-05
1.46e-05
2
1.45e-05
1.46e-05
1.46e-05
2
1.45e-05
1.46e-05
1.46e-05
4
1.45e-05
1.46e-05
1.46e-05
8
1.45e-05
1.46e-05
1.46e-05
20
1.47e-05
1.46e-05
1.46e-05
7
1.47e-05
1.46e-05
1.46e-05
4
1.47e-05
1.46e-05
1.46e-05
3
1.47e-05
1.46e-05
1.46e-05
1
1.47e-05
1.46e-05
1.46e-05
2
1.47e-05
1.46e-05
1.46e-05
0
1.47e-05
1.46e-05
1.46e-05
1
1.47e-05
1.46e-05
1.46e-05
0
1.47e-05
1.46e-05
1.46e-05
0
1.47e-05
1.46e-05
1.46e-05
0
1.47e-05
1.46e-05
1.46e-05
0
1.47e-05
1.46e-05
1.46e-05
0
1.47e-05
1.46e-05
1.47e-05
1.46e-05
1.46e-05
0
1.47e-05
1.46e-05
1.47e-05
1.46e-05
1.46e-05
0
1.47e-05
1.46e-05
1.47e-05
1.46e-05
1.47e-05
1.46e-05
1.47e-05
1.46e-05
1.47e-05
1.46e-05
1.47e-05
1.46e-05
1.47e-05
1.46e-05
1.47e-05
1.46e-05
1.47e-05
1.46e-05
1.47e-05
1.46e-05
1.47e-05
1.46e-05
1.47e-05
1.46e-05
1.47e-05
1.47e-05
0
1.46e-05
1.47e-05
1.46e-05
1.47e-05
1.47e-05
0
1.46e-05
1.47e-05
1.46e-05
1.47e-05
1.47e-05
0
1.46e-05
1.47e-05
1.47e-05
0
1.46e-05
1.47e-05
1.47e-05
0
1.46e-05
1.47e-05
1.47e-05
0
1.46e-05
1.47e-05
1.47e-05
1
1.46e-05
1.47e-05
1.47e-05
0
1.46e-05
1.47e-05
1.47e-05
1
1.46e-05
1.47e-05
1.47e-05
2
1.46e-05
1.47e-05
1.47e-05
2
1.46e-05
1.47e-05
1.47e-05
3
1.46e-05
1.47e-05
1.47e-05
5
1.46e-05
1.47e-05
1.47e-05
33
1.48e-05
1.47e-05
1.47e-05
5
1.48e-05
1.47e-05
1.47e-05
3
1.48e-05
1.47e-05
1.47e-05
2
1.48e-05
1.47e-05
1.47e-05
1
1.48e-05
1.47e-05
1.47e-05
1
1.48e-05
1.47e-05
1.47e-05
1
1.48e-05
1.47e-05
1.47e-05
0
1.48e-05
1.47e-05
1.47e-05
0
1.48e-05
1.47e-05
1.47e-05
0
1.48e-05
1.47e-05
1.47e-05
0
1.48e-05
1.47e-05
1.47e-05
0
1.48e-05
1.47e-05
1.47e-05
0
1.48e-05
1.47e-05
1.48e-05
1.47e-05
1.47e-05
0
1.48e-05
1.47e-05
1.48e-05
1.47e-05
1.48e-05
1.47e-05
1.48e-05
1.47e-05
1.47e-05
0
1.48e-05
1.47e-05
1.48e-05
1.47e-05
1.48e-05
1.47e-05
1.48e-05
1.47e-05
1.48e-05
1.47e-05
1.48e-05
1.47e-05
1.48e-05
1.48e-05
0
1.47e-05
1.48e-05
1.47e-05
1.48e-05
1.47e-05
1.48e-05
1.48e-05
0
1.47e-05
1.48e-05
1.47e-05
1.48e-05
1.48e-05
0
1.47e-05
1.48e-05
1.47e-05
1.48e-05
1.48e-05
0
1.47e-05
1.48e-05
1.48e-05
0
1.47e-05
1.48e-05
1.48e-05
0
1.47e-05
1.48e-05
1.48e-05
0
1.47e-05
1.48e-05
1.48e-05
1
1.47e-05
1.48e-05
1.48e-05
1
1.47e-05
1.48e-05
1.48e-05
1
1.47e-05
1.48e-05
1.48e-05
1
1.47e-05
1.48e-05
1.48e-05
3
1.47e-05
1.48e-05
1.48e-05
3
1.47e-05
1.48e-05
1.48e-05
7
1.47e-05
1.48e-05
1.48e-05
24
1.49e-05
1.48e-05
1.48e-05
6
1.49e-05
1.48e-05
1.48e-05
4
1.49e-05
1.48e-05
1.48e-05
2
1.49e-05
1.48e-05
1.48e-05
2
1.49e-05
1.48e-05
1.48e-05
1
1.49e-05
1.48e-05
1.48e-05
1
1.49e-05
1.48e-05
1.48e-05
0
1.49e-05
1.48e-05
1.48e-05
1
1.49e-05
1.48e-05
1.48e-05
0
1.49e-05
1.48e-05
1.48e-05
0
1.49e-05
1.48e-05
1.49e-05
1.48e-05
1.48e-05
0
1.49e-05
1.48e-05
1.48e-05
0
1.49e-05
1.48e-05
1.49e-05
1.48e-05
1.48e-05
0
1.49e-05
1.48e-05
1.49e-05
1.48e-05
1.49e-05
1.48e-05
1.49e-05
1.48e-05
1.49e-05
1.48e-05
1.49e-05
1.48e-05
1.48e-05
0
1.49e-05
1.49e-05
0
1.48e-05
1.49e-05
1.48e-05
1.49e-05
1.48e-05
1.49e-05
1.48e-05
1.49e-05
1.48e-05
1.49e-05
1.48e-05
1.49e-05
1.49e-05
0
1.48e-05
1.49e-05
1.48e-05
1.49e-05
1.49e-05
0
1.48e-05
1.49e-05
1.49e-05
0
1.48e-05
1.49e-05
1.48e-05
1.49e-05
1.49e-05
0
1.48e-05
1.49e-05
1.49e-05
0
1.48e-05
1.49e-05
1.49e-05
1
1.48e-05
1.49e-05
1.49e-05
0
1.48e-05
1.49e-05
1.49e-05
1
1.48e-05
1.49e-05
1.49e-05
1
1.48e-05
1.49e-05
1.49e-05
2
1.48e-05
1.49e-05
1.49e-05
2
1.48e-05
1.49e-05
1.49e-05
4
1.48e-05
1.49e-05
1.49e-05
7
1.48e-05
1.49e-05
1.49e-05
22
1.5e-05
1.49e-05
1.49e-05
7
1.5e-05
1.49e-05
1.49e-05
3
1.5e-05
1.49e-05
1.49e-05
3
1.5e-05
1.49e-05
1.49e-05
1
1.5e-05
1.49e-05
1.49e-05
2
1.5e-05
1.49e-05
1.49e-05
0
1.5e-05
1.49e-05
1.49e-05
1
1.5e-05
1.49e-05
1.49e-05
0
1.5e-05
1.49e-05
1.49e-05
0
1.5e-05
1.49e-05
1.49e-05
0
1.5e-05
1.49e-05
1.49e-05
0
1.5e-05
1.49e-05
1.49e-05
0
1.5e-05
1.49e-05
1.5e-05
1.49e-05
1.49e-05
0
1.5e-05
1.49e-05
1.5e-05
1.49e-05
1.5e-05
1.49e-05
1.49e-05
0
1.5e-05
1.49e-05
1.5e-05
1.49e-05
1.5e-05
1.49e-05
1.5e-05
1.49e-05
1.5e-05
1.49e-05
1.5e-05
1.49e-05
1.5e-05
1.49e-05
1.5e-05
1.49e-05
1.5e-05
1.49e-05
1.5e-05
1.5e-05
0
1.49e-05
1.5e-05
1.49e-05
1.5e-05
1.5e-05
0
1.49e-05
1.5e-05
1.49e-05
1.5e-05
1.5e-05
0
1.49e-05
1.5e-05
1.49e-05
1.5e-05
1.5e-05
0
1.49e-05
1.5e-05
1.5e-05
0
1.49e-05
1.5e-05
1.5e-05
0
1.49e-05
1.5e-05
1.5e-05
1
1.49e-05
1.5e-05
1.5e-05
0
1.49e-05
1.5e-05
1.5e-05
1
1.49e-05
1.5e-05
1.5e-05
2
1.49e-05
1.5e-05
1.5e-05
2
1.49e-05
1.5e-05
1.5e-05
3
1.49e-05
1.5e-05
1.5e-05
5
1.49e-05
1.5e-05
1.5e-05
32
1.51e-05
1.5e-05
1.5e-05
5
1.51e-05
1.5e-05
1.5e-05
3
1.51e-05
1.5e-05
1.5e-05
2
1.51e-05
1.5e-05
1.5e-05
1
1.51e-05
1.5e-05
1.5e-05
1
1.51e-05
1.5e-05
1.5e-05
1
1.51e-05
1.5e-05
1.5e-05
0
1.51e-05
1.5e-05
1.5e-05
1
1.51e-05
1.5e-05
1.5e-05
0
1.51e-05
1.5e-05
1.5e-05
0
1.51e-05
1.5e-05
1.51e-05
1.5e-05
1.5e-05
0
1.51e-05
1.5e-05
1.51e-05
1.5e-05
1.5e-05
0
1.51e-05
1.5e-05
1.51e-05
1.5e-05
1.51e-05
1.5e-05
1.5e-05
0
1.51e-05
1.5e-05
1.51e-05
1.5e-05
1.51e-05
1.5e-05
1.51e-05
1.5e-05
1.51e-05
1.5e-05
1.51e-05
1.5e-05
1.51e-05
1.5e-05
1.51e-05
1.5e-05
1.51e-05
1.51e-05
0
1.5e-05
1.51e-05
1.5e-05
1.51e-05
1.5e-05
1.51e-05
1.51e-05
0
1.5e-05
1.51e-05
1.51e-05
0
1.5e-05
1.51e-05
1.5e-05
1.51e-05
1.51e-05
0
1.5e-05
1.51e-05
1.51e-05
0
1.5e-05
1.51e-05
1.51e-05
0
1.5e-05
1.51e-05
1.51e-05
1
1.5e-05
1.51e-05
1.51e-05
0
1.5e-05
1.51e-05
1.51e-05
1
1.5e-05
1.51e-05
1.51e-05
1
1.5e-05
1.51e-05
1.51e-05
2
1.5e-05
1.51e-05
1.51e-05
3
1.5e-05
1.51e-05
1.51e-05
4
1.5e-05
1.51e-05
1.51e-05
9
1.5e-05
1.51e-05
1.51e-05
12
1.52e-05
1.51e-05
1.51e-05
10
1.52e-05
1.51e-05
1.51e-05
4
1.52e-05
1.51e-05
1.51e-05
3
1.52e-05
1.51e-05
1.51e-05
1
1.52e-05
1.51e-05
1.51e-05
2
1.52e-05
1.51e-05
1.51e-05
1
1.52e-05
1.51e-05
1.51e-05
0
1.52e-05
1.51e-05
1.51e-05
1
1.52e-05
1.51e-05
1.51e-05
0
1.52e-05
1.51e-05
1.51e-05
0
1.52e-05
1.51e-05
1.52e-05
1.51e-05
1.51e-05
0
1.52e-05
1.51e-05
1.51e-05
0
1.52e-05
1.51e-05
1.52e-05
1.51e-05
1.51e-05
0
1.52e-05
1.51e-05
1.52e-05
1.51e-05
1.52e-05
1.51e-05
1.52e-05
1.51e-05
1.51e-05
0
1.52e-05
1.51e-05
1.52e-05
1.51e-05
1.52e-05
1.51e-05
1.52e-05
1.51e-05
1.52e-05
1.52e-05
0
1.51e-05
1.52e-05
1.51e-05
1.52e-05
1.51e-05
1.52e-05
1.51e-05
1.52e-05
1.52e-05
0
1.51e-05
1.52e-05
1.51e-05
1.52e-05
1.52e-05
0
1.51e-05
1.52e-05
1.51e-05
1.52e-05
1.52e-05
0
1.51e-05
1.52e-05
1.52e-05
0
1.51e-05
1.52e-05
1.52e-05
0
1.51e-05
1.52e-05
1.52e-05
0
1.51e-05
1.52e-05
1.52e-05
1
1.51e-05
1.52e-05
1.52e-05
1
1.51e-05
1.52e-05
1.52e-05
1
1.51e-05
1.52e-05
1.52e-05
1
1.51e-05
1.52e-05
1.52e-05
3
1.51e-05
1.52e-05
1.52e-05
4
1.51e-05
1.52e-05
1.52e-05
6
1.51e-05
1.52e-05
1.52e-05
22
1.53e-05
1.52e-05
1.52e-05
7
1.53e-05
1.52e-05
1.52e-05
3
1.53e-05
1.52e-05
1.52e-05
3
1.53e-05
1.52e-05
1.52e-05
1
1.53e-05
1.52e-05
1.52e-05
1
1.53e-05
1.52e-05
1.52e-05
1
1.53e-05
1.52e-05
1.52e-05
1
1.53e-05
1.52e-05
1.52e-05
0
1.53e-05
1.52e-05
1.52e-05
0
1.53e-05
1.52e-05
1.52e-05
0
1.53e-05
1.52e-05
1.52e-05
0
1.53e-05
1.52e-05
1.53e-05
1.52e-05
1.52e-05
0
1.53e-05
1.52e-05
1.53e-05
1.52e-05
1.52e-05
0
1.53e-05
1.52e-05
1.53e-05
1.52e-05
1.53e-05
1.52e-05
1.53e-05
1.52e-05
1.52e-05
0
1.53e-05
1.52e-05
1.53e-05
1.52e-05
1.53e-05
1.52e-05
1.53e-05
1.52e-05
1.53e-05
1.53e-05
0
1.52e-05
1.53e-05
1.52e-05
1.53e-05
1.52e-05
1.53e-05
1.52e-05
1.53e-05
1.53e-05
0
1.52e-05
1.53e-05
1.52e-05
1.53e-05
1.53e-05
0
1.52e-05
1.53e-05
1.53e-05
0
1.52e-05
1.53e-05
1.52e-05
1.53e-05
1.53e-05
0
1.52e-05
1.53e-05
1.53e-05
1
1.52e-05
1.53e-05
1.53e-05
0
1.52e-05
1.53e-05
1.53e-05
1
1.52e-05
1.53e-05
1.53e-05
0
1.52e-05
1.53e-05
1.53e-05
2
1.52e-05
1.53e-05
1.53e-05
2
1.52e-05
1.53e-05
1.53e-05
3
1.52e-05
1.53e-05
1.53e-05
4
1.52e-05
1.53e-05
1.53e-05
34
1.54e-05
1.53e-05
1.53e-05
4
1.54e-05
1.53e-05
1.53e-05
3
1.54e-05
1.53e-05
1.53e-05
2
1.54e-05
1.53e-05
1.53e-05
1
1.54e-05
1.53e-05
1.53e-05
1
1.54e-05
1.53e-05
1.53e-05
1
1.54e-05
1.53e-05
1.53e-05
0
1.54e-05
1.53e-05
1.53e-05
0
1.54e-05
1.53e-05
1.53e-05
0
1.54e-05
1.53e-05
1.53e-05
0
1.54e-05
1.53e-05
1.53e-05
0
1.54e-05
1.53e-05
1.53e-05
0
1.54e-05
1.53e-05
1.54e-05
1.53e-05
1.54e-05
1.53e-05
1.53e-05
0
1.54e-05
1.53e-05
1.54e-05
1.53e-05
1.54e-05
1.53e-05
1.54e-05
1.53e-05
1.54e-05
1.53e-05
1.54e-05
1.53e-05
1.54e-05
1.53e-05
1.54e-05
1.53e-05
1.54e-05
1.53e-05
1.54e-05
1.53e-05
1.54e-05
1.53e-05
1.54e-05
1.53e-05
1.54e-05
1.54e-05
0
1.53e-05
1.54e-05
1.53e-05
1.54e-05
1.54e-05
0
1.53e-05
1.54e-05
1.54e-05
0
1.53e-05
1.54e-05
1.53e-05
1.54e-05
1.54e-05
0
1.53e-05
1.54e-05
1.54e-05
1
1.53e-05
1.54e-05
1.54e-05
0
1.53e-05
1.54e-05
1.54e-05
0
1.53e-05
1.54e-05
1.54e-05
1
1.53e-05
1.54e-05
1.54e-05
2
1.53e-05
1.54e-05
1.54e-05
2
1.53e-05
1.54e-05
1.54e-05
2
1.53e-05
1.54e-05
1.54e-05
5
1.53e-05
1.54e-05
1.54e-05
11
1.53e-05
1.54e-05
1.54e-05
6
1.55e-05
1.54e-05
1.54e-05
12
1.55e-05
