# Pulseq sequence file
# Created by PyPulseq

[VERSION]
major 1
minor 4
revision 0

[DEFINITIONS]
AdcRasterTime 1e-07 
BlockDurationRaster 1e-05 
FOV 0.256 0.256 0.006 
Flipangle 32.1018493 
GradientRasterTime 1e-05 
RadiofrequencyRasterTime 1e-06 
TE 0.00229001 
TR 0.01 
TotalDuration 628.0176 
b0 3 
dcsat 0.909090909 
delta 3.90625 
k_space_encoding1 1 
m0_offset -300 
n_pulses 50 
name 20250311_BACEST_256mm 
num_meas 70 
number_of_readouts 196 
offsets_ppm -300 -10 -8 -7.75 -7.5 -7.25 -7 -6.75 -6.5 -6.375 -6.25 -6.125 -6 -5.825 -5.75 -5.675 -5.5 -5.325 -5.25 -5.125 -5 -4.75 -4.5 -4.25 -4 -3.75 -3.5 -3 -2.5 -2 -1.5 -1 -0.75 -0.5 -0.25 0 0.25 0.5 0.75 1 1.5 2 2.5 3 3.5 3.75 4 4.25 4.5 4.75 5 5.125 5.25 5.375 5.5 5.625 5.75 5.825 6 6.125 6.25 6.375 6.5 6.75 7 7.25 7.5 7.75 8 10 
sampling_scheme cartesian 
td 0.01 
tp 0.1 
trec 1 
trec_m0 15 
tsat 5.49 

# Format of blocks:
# NUM DUR RF  GX  GY  GZ  ADC  EXT
[BLOCKS]
    1   0   0   0   0   0  0  1
    2 1500000   0   0   0   0  0  0
    3 10013   1   0   0   0  0  0
    4 1000   0   0   0   1  0  0
    5 10013   2   0   0   0  0  0
    6 1000   0   0   0   1  0  0
    7 10013   3   0   0   0  0  0
    8 1000   0   0   0   1  0  0
    9 10013   4   0   0   0  0  0
   10 1000   0   0   0   1  0  0
   11 10013   5   0   0   0  0  0
   12 1000   0   0   0   1  0  0
   13 10013   6   0   0   0  0  0
   14 1000   0   0   0   1  0  0
   15 10013   7   0   0   0  0  0
   16 1000   0   0   0   1  0  0
   17 10013   8   0   0   0  0  0
   18 1000   0   0   0   1  0  0
   19 10013   9   0   0   0  0  0
   20 1000   0   0   0   1  0  0
   21 10013  10   0   0   0  0  0
   22 1000   0   0   0   1  0  0
   23 10013  11   0   0   0  0  0
   24 1000   0   0   0   1  0  0
   25 10013  12   0   0   0  0  0
   26 1000   0   0   0   1  0  0
   27 10013  13   0   0   0  0  0
   28 1000   0   0   0   1  0  0
   29 10013  14   0   0   0  0  0
   30 1000   0   0   0   1  0  0
   31 10013  15   0   0   0  0  0
   32 1000   0   0   0   1  0  0
   33 10013  16   0   0   0  0  0
   34 1000   0   0   0   1  0  0
   35 10013  17   0   0   0  0  0
   36 1000   0   0   0   1  0  0
   37 10013  18   0   0   0  0  0
   38 1000   0   0   0   1  0  0
   39 10013  19   0   0   0  0  0
   40 1000   0   0   0   1  0  0
   41 10013  20   0   0   0  0  0
   42 1000   0   0   0   1  0  0
   43 10013  21   0   0   0  0  0
   44 1000   0   0   0   1  0  0
   45 10013  22   0   0   0  0  0
   46 1000   0   0   0   1  0  0
   47 10013  23   0   0   0  0  0
   48 1000   0   0   0   1  0  0
   49 10013  24   0   0   0  0  0
   50 1000   0   0   0   1  0  0
   51 10013  25   0   0   0  0  0
   52 1000   0   0   0   1  0  0
   53 10013  26   0   0   0  0  0
   54 1000   0   0   0   1  0  0
   55 10013  27   0   0   0  0  0
   56 1000   0   0   0   1  0  0
   57 10013  28   0   0   0  0  0
   58 1000   0   0   0   1  0  0
   59 10013  29   0   0   0  0  0
   60 1000   0   0   0   1  0  0
   61 10013  30   0   0   0  0  0
   62 1000   0   0   0   1  0  0
   63 10013  31   0   0   0  0  0
   64 1000   0   0   0   1  0  0
   65 10013  32   0   0   0  0  0
   66 1000   0   0   0   1  0  0
   67 10013  33   0   0   0  0  0
   68 1000   0   0   0   1  0  0
   69 10013  34   0   0   0  0  0
   70 1000   0   0   0   1  0  0
   71 10013  35   0   0   0  0  0
   72 1000   0   0   0   1  0  0
   73 10013  36   0   0   0  0  0
   74 1000   0   0   0   1  0  0
   75 10013  37   0   0   0  0  0
   76 1000   0   0   0   1  0  0
   77 10013  38   0   0   0  0  0
   78 1000   0   0   0   1  0  0
   79 10013  39   0   0   0  0  0
   80 1000   0   0   0   1  0  0
   81 10013  40   0   0   0  0  0
   82 1000   0   0   0   1  0  0
   83 10013  41   0   0   0  0  0
   84 1000   0   0   0   1  0  0
   85 10013  42   0   0   0  0  0
   86 1000   0   0   0   1  0  0
   87 10013  43   0   0   0  0  0
   88 1000   0   0   0   1  0  0
   89 10013  44   0   0   0  0  0
   90 1000   0   0   0   1  0  0
   91 10013  45   0   0   0  0  0
   92 1000   0   0   0   1  0  0
   93 10013  46   0   0   0  0  0
   94 1000   0   0   0   1  0  0
   95 10013  47   0   0   0  0  0
   96 1000   0   0   0   1  0  0
   97 10013  48   0   0   0  0  0
   98 1000   0   0   0   1  0  0
   99 10013  49   0   0   0  0  0
  100 1000   0   0   0   1  0  0
  101 10013  50   0   0   0  0  0
  102 550   0   2   2   2  0  0
  103 147  51   0   0   3  0  0
  104  50   0   4   5   6  0  0
  105 210   0   7   0   0  1  0
  106 210   0   7   8   9  0  2
  107 541   0   0   0   0  0  0
  108 147  52   0   0   3  0  0
  109  50   0   4  10   6  0  0
  110 210   0   7   0   0  2  0
  111 210   0   7  11   9  0  3
  112 541   0   0   0   0  0  0
  113 147  53   0   0   3  0  0
  114  50   0   4  12   6  0  0
  115 210   0   7   0   0  3  0
  116 210   0   7  13   9  0  4
  117 541   0   0   0   0  0  0
  118 147  54   0   0   3  0  0
  119  50   0   4  14   6  0  0
  120 210   0   7   0   0  4  0
  121 210   0   7  15   9  0  5
  122 541   0   0   0   0  0  0
  123 147  55   0   0   3  0  0
  124  50   0   4  16   6  0  0
  125 210   0   7   0   0  5  0
  126 210   0   7  17   9  0  6
  127 541   0   0   0   0  0  0
  128 147  56   0   0   3  0  0
  129  50   0   4  18   6  0  0
  130 210   0   7   0   0  6  0
  131 210   0   7  19   9  0  7
  132 541   0   0   0   0  0  0
  133 147  57   0   0   3  0  0
  134  50   0   4  20   6  0  0
  135 210   0   7   0   0  7  0
  136 210   0   7  21   9  0  8
  137 541   0   0   0   0  0  0
  138 147  58   0   0   3  0  0
  139  50   0   4  22   6  0  0
  140 210   0   7   0   0  8  0
  141 210   0   7  23   9  0  9
  142 541   0   0   0   0  0  0
  143 147  59   0   0   3  0  0
  144  50   0   4  24   6  0  0
  145 210   0   7   0   0  9  0
  146 210   0   7  25   9  0 10
  147 541   0   0   0   0  0  0
  148 147  60   0   0   3  0  0
  149  50   0   4  26   6  0  0
  150 210   0   7   0   0 10  0
  151 210   0   7  27   9  0 11
  152 541   0   0   0   0  0  0
  153 147  56   0   0   3  0  0
  154  50   0   4  28   6  0  0
  155 210   0   7   0   0  6  0
  156 210   0   7  29   9  0 12
  157 541   0   0   0   0  0  0
  158 147  61   0   0   3  0  0
  159  50   0   4  30   6  0  0
  160 210   0   7   0   0 11  0
  161 210   0   7  31   9  0 13
  162 541   0   0   0   0  0  0
  163 147  62   0   0   3  0  0
  164  50   0   4  32   6  0  0
  165 210   0   7   0   0 12  0
  166 210   0   7  33   9  0 14
  167 541   0   0   0   0  0  0
  168 147  63   0   0   3  0  0
  169  50   0   4  34   6  0  0
  170 210   0   7   0   0 13  0
  171 210   0   7  35   9  0 15
  172 541   0   0   0   0  0  0
  173 147  64   0   0   3  0  0
  174  50   0   4  36   6  0  0
  175 210   0   7   0   0 14  0
  176 210   0   7  37   9  0 16
  177 541   0   0   0   0  0  0
  178 147  51   0   0   3  0  0
  179  50   0   4  38   6  0  0
  180 210   0   7   0   0  1  0
  181 210   0   7  39   9  0 17
  182 541   0   0   0   0  0  0
  183 147  65   0   0   3  0  0
  184  50   0   4  40   6  0  0
  185 210   0   7   0   0 15  0
  186 210   0   7  41   9  0 18
  187 541   0   0   0   0  0  0
  188 147  66   0   0   3  0  0
  189  50   0   4  42   6  0  0
  190 210   0   7   0   0 16  0
  191 210   0   7  43   9  0 19
  192 541   0   0   0   0  0  0
  193 147  63   0   0   3  0  0
  194  50   0   4  44   6  0  0
  195 210   0   7   0   0 13  0
  196 210   0   7  45   9  0 20
  197 541   0   0   0   0  0  0
  198 147  67   0   0   3  0  0
  199  50   0   4  46   6  0  0
  200 210   0   7   0   0 17  0
  201 210   0   7  47   9  0 21
  202 541   0   0   0   0  0  0
  203 147  55   0   0   3  0  0
  204  50   0   4  48   6  0  0
  205 210   0   7   0   0  5  0
  206 210   0   7  49   9  0 22
  207 541   0   0   0   0  0  0
  208 147  68   0   0   3  0  0
  209  50   0   4  50   6  0  0
  210 210   0   7   0   0 18  0
  211 210   0   7  51   9  0 23
  212 541   0   0   0   0  0  0
  213 147  69   0   0   3  0  0
  214  50   0   4  52   6  0  0
  215 210   0   7   0   0 19  0
  216 210   0   7  53   9  0 24
  217 541   0   0   0   0  0  0
  218 147  59   0   0   3  0  0
  219  50   0   4  54   6  0  0
  220 210   0   7   0   0  9  0
  221 210   0   7  55   9  0 25
  222 541   0   0   0   0  0  0
  223 147  70   0   0   3  0  0
  224  50   0   4  56   6  0  0
  225 210   0   7   0   0 20  0
  226 210   0   7  57   9  0 26
  227 541   0   0   0   0  0  0
  228 147  60   0   0   3  0  0
  229  50   0   4  58   6  0  0
  230 210   0   7   0   0 10  0
  231 210   0   7  59   9  0 27
  232 541   0   0   0   0  0  0
  233 147  68   0   0   3  0  0
  234  50   0   4  60   6  0  0
  235 210   0   7   0   0 18  0
  236 210   0   7  61   9  0 28
  237 541   0   0   0   0  0  0
  238 147  71   0   0   3  0  0
  239  50   0   4  62   6  0  0
  240 210   0   7   0   0 21  0
  241 210   0   7  63   9  0 29
  242 541   0   0   0   0  0  0
  243 147  54   0   0   3  0  0
  244  50   0   4  64   6  0  0
  245 210   0   7   0   0  4  0
  246 210   0   7  65   9  0 30
  247 541   0   0   0   0  0  0
  248 147  72   0   0   3  0  0
  249  50   0   4  66   6  0  0
  250 210   0   7   0   0 22  0
  251 210   0   7  67   9  0 31
  252 541   0   0   0   0  0  0
  253 147  64   0   0   3  0  0
  254  50   0   4  68   6  0  0
  255 210   0   7   0   0 14  0
  256 210   0   7  69   9  0 32
  257 541   0   0   0   0  0  0
  258 147  65   0   0   3  0  0
  259  50   0   4  70   6  0  0
  260 210   0   7   0   0 15  0
  261 210   0   7  71   9  0 33
  262 541   0   0   0   0  0  0
  263 147  73   0   0   3  0  0
  264  50   0   4  72   6  0  0
  265 210   0   7   0   0 23  0
  266 210   0   7  73   9  0 34
  267 541   0   0   0   0  0  0
  268 147  52   0   0   3  0  0
  269  50   0   4  74   6  0  0
  270 210   0   7   0   0  2  0
  271 210   0   7  75   9  0 35
  272 541   0   0   0   0  0  0
  273 147  72   0   0   3  0  0
  274  50   0   4  76   6  0  0
  275 210   0   7   0   0 22  0
  276 210   0   7  77   9  0 36
  277 541   0   0   0   0  0  0
  278 147  67   0   0   3  0  0
[RF]
1      95.5123 1 2 0 100 -38318.8 0
2      95.5123 1 2 0 100 -38318.8 0.779115
3      95.5123 1 2 0 100 -38318.8 1.55823
4      95.5123 1 2 0 100 -38318.8 2.33734
5      95.5123 1 2 0 100 -38318.8 3.11646
6      95.5123 1 2 0 100 -38318.8 3.89557
7      95.5123 1 2 0 100 -38318.8 4.67469
8      95.5123 1 2 0 100 -38318.8 5.4538
9      95.5123 1 2 0 100 -38318.8 6.23292
10      95.5123 1 2 0 100 -38318.8 0.728849
11      95.5123 1 2 0 100 -38318.8 1.50796
12      95.5123 1 2 0 100 -38318.8 2.28708
13      95.5123 1 2 0 100 -38318.8 3.06619
14      95.5123 1 2 0 100 -38318.8 3.84531
15      95.5123 1 2 0 100 -38318.8 4.62442
16      95.5123 1 2 0 100 -38318.8 5.40354
17      95.5123 1 2 0 100 -38318.8 6.18265
18      95.5123 1 2 0 100 -38318.8 0.678584
19      95.5123 1 2 0 100 -38318.8 1.4577
20      95.5123 1 2 0 100 -38318.8 2.23681
21      95.5123 1 2 0 100 -38318.8 3.01593
22      95.5123 1 2 0 100 -38318.8 3.79504
23      95.5123 1 2 0 100 -38318.8 4.57416
24      95.5123 1 2 0 100 -38318.8 5.35327
25      95.5123 1 2 0 100 -38318.8 6.13239
26      95.5123 1 2 0 100 -38318.8 0.628319
27      95.5123 1 2 0 100 -38318.8 1.40743
28      95.5123 1 2 0 100 -38318.8 2.18655
29      95.5123 1 2 0 100 -38318.8 2.96566
30      95.5123 1 2 0 100 -38318.8 3.74478
31      95.5123 1 2 0 100 -38318.8 4.52389
32      95.5123 1 2 0 100 -38318.8 5.30301
33      95.5123 1 2 0 100 -38318.8 6.08212
34      95.5123 1 2 0 100 -38318.8 0.578053
35      95.5123 1 2 0 100 -38318.8 1.35717
36      95.5123 1 2 0 100 -38318.8 2.13628
37      95.5123 1 2 0 100 -38318.8 2.9154
38      95.5123 1 2 0 100 -38318.8 3.69451
39      95.5123 1 2 0 100 -38318.8 4.47363
40      95.5123 1 2 0 100 -38318.8 5.25274
41      95.5123 1 2 0 100 -38318.8 6.03186
42      95.5123 1 2 0 100 -38318.8 0.527788
43      95.5123 1 2 0 100 -38318.8 1.3069
44      95.5123 1 2 0 100 -38318.8 2.08602
45      95.5123 1 2 0 100 -38318.8 2.86513
46      95.5123 1 2 0 100 -38318.8 3.64425
47      95.5123 1 2 0 100 -38318.8 4.42336
48      95.5123 1 2 0 100 -38318.8 5.20248
49      95.5123 1 2 0 100 -38318.8 5.98159
50      95.5123 1 2 0 100 -38318.8 0.477522
51      85.7162 3 4 0 100 0 0
52      85.7162 3 4 0 100 0 2.04204
53      85.7162 3 4 0 100 0 6.12611
54      85.7162 3 4 0 100 0 5.96903
55      85.7162 3 4 0 100 0 1.5708
56      85.7162 3 4 0 100 0 5.49779
57      85.7162 3 4 0 100 0 5.18363
58      85.7162 3 4 0 100 0 0.628319
59      85.7162 3 4 0 100 0 4.39823
60      85.7162 3 4 0 100 0 3.92699
61      85.7162 3 4 0 100 0 2.82743
62      85.7162 3 4 0 100 0 2.19911
63      85.7162 3 4 0 100 0 3.61283
64      85.7162 3 4 0 100 0 0.785398
65      85.7162 3 4 0 100 0 1.25664
66      85.7162 3 4 0 100 0 4.55531
67      85.7162 3 4 0 100 0 4.71239
68      85.7162 3 4 0 100 0 0.471239
69      85.7162 3 4 0 100 0 1.41372
70      85.7162 3 4 0 100 0 3.14159
71      85.7162 3 4 0 100 0 5.34071
72      85.7162 3 4 0 100 0 2.35619
73      85.7162 3 4 0 100 0 3.76991
74      85.7162 3 4 0 100 0 2.98451
75      95.5123 1 2 0 100 -1277.29 0
76      95.5123 1 2 0 100 -1277.29 1.70149
77      95.5123 1 2 0 100 -1277.29 3.40297
78      95.5123 1 2 0 100 -1277.29 5.10446
79      95.5123 1 2 0 100 -1277.29 0.522761
80      95.5123 1 2 0 100 -1277.29 2.22425
81      95.5123 1 2 0 100 -1277.29 3.92573
82      95.5123 1 2 0 100 -1277.29 5.62722
83      95.5123 1 2 0 100 -1277.29 1.04552
84      95.5123 1 2 0 100 -1277.29 2.74701
85      95.5123 1 2 0 100 -1277.29 4.4485
86      95.5123 1 2 0 100 -1277.29 6.14998
87      95.5123 1 2 0 100 -1277.29 1.56828
88      95.5123 1 2 0 100 -1277.29 3.26977
89      95.5123 1 2 0 100 -1277.29 4.97126
90      95.5123 1 2 0 100 -1277.29 0.389557
91      95.5123 1 2 0 100 -1277.29 2.09104
92      95.5123 1 2 0 100 -1277.29 3.79253
93      95.5123 1 2 0 100 -1277.29 5.49402
94      95.5123 1 2 0 100 -1277.29 0.912319
95      95.5123 1 2 0 100 -1277.29 2.61381
96      95.5123 1 2 0 100 -1277.29 4.31529
97      95.5123 1 2 0 100 -1277.29 6.01678
98      95.5123 1 2 0 100 -1277.29 1.43508
99      95.5123 1 2 0 100 -1277.29 3.13657
100      95.5123 1 2 0 100 -1277.29 4.83805
101      95.5123 1 2 0 100 -1277.29 0.256354
102      95.5123 1 2 0 100 -1277.29 1.95784
103      95.5123 1 2 0 100 -1277.29 3.65933
104      95.5123 1 2 0 100 -1277.29 5.36081
105      95.5123 1 2 0 100 -1277.29 0.779115
106      95.5123 1 2 0 100 -1277.29 2.4806
107      95.5123 1 2 0 100 -1277.29 4.18209
108      95.5123 1 2 0 100 -1277.29 5.88357
109      95.5123 1 2 0 100 -1277.29 1.30188
110      95.5123 1 2 0 100 -1277.29 3.00336
111      95.5123 1 2 0 100 -1277.29 4.70485
112      95.5123 1 2 0 100 -1277.29 0.12315
113      95.5123 1 2 0 100 -1277.29 1.82464
114      95.5123 1 2 0 100 -1277.29 3.52612
115      95.5123 1 2 0 100 -1277.29 5.22761
116      95.5123 1 2 0 100 -1277.29 0.645911
117      95.5123 1 2 0 100 -1277.29 2.3474
118      95.5123 1 2 0 100 -1277.29 4.04888
119      95.5123 1 2 0 100 -1277.29 5.75037
120      95.5123 1 2 0 100 -1277.29 1.16867
121      95.5123 1 2 0 100 -1277.29 2.87016
122      95.5123 1 2 0 100 -1277.29 4.57165
123      95.5123 1 2 0 100 -1277.29 6.27313
124      95.5123 1 2 0 100 -1277.29 1.69143
125      95.5123 1 2 0 100 -1021.83 0
126      95.5123 1 2 0 100 -1021.83 5.1311
127      95.5123 1 2 0 100 -1021.83 3.97902
128      95.5123 1 2 0 100 -1021.83 2.82693
129      95.5123 1 2 0 100 -1021.83 1.67485
130      95.5123 1 2 0 100 -1021.83 0.522761
131      95.5123 1 2 0 100 -1021.83 5.65386
132      95.5123 1 2 0 100 -1021.83 4.50178
133      95.5123 1 2 0 100 -1021.83 3.34969
134      95.5123 1 2 0 100 -1021.83 2.19761
135      95.5123 1 2 0 100 -1021.83 1.04552
136      95.5123 1 2 0 100 -1021.83 6.17662
137      95.5123 1 2 0 100 -1021.83 5.02454
138      95.5123 1 2 0 100 -1021.83 3.87245
139      95.5123 1 2 0 100 -1021.83 2.72037
140      95.5123 1 2 0 100 -1021.83 1.56828
141      95.5123 1 2 0 100 -1021.83 0.416198
142      95.5123 1 2 0 100 -1021.83 5.5473
143      95.5123 1 2 0 100 -1021.83 4.39521
144      95.5123 1 2 0 100 -1021.83 3.24313
145      95.5123 1 2 0 100 -1021.83 2.09104
146      95.5123 1 2 0 100 -1021.83 0.938959
147      95.5123 1 2 0 100 -1021.83 6.07006
148      95.5123 1 2 0 100 -1021.83 4.91797
149      95.5123 1 2 0 100 -1021.83 3.76589
150      95.5123 1 2 0 100 -1021.83 2.61381
151      95.5123 1 2 0 100 -1021.83 1.46172
152      95.5123 1 2 0 100 -1021.83 0.309635
153      95.5123 1 2 0 100 -1021.83 5.44074
154      95.5123 1 2 0 100 -1021.83 4.28865
155      95.5123 1 2 0 100 -1021.83 3.13657
156      95.5123 1 2 0 100 -1021.83 1.98448
157      95.5123 1 2 0 100 -1021.83 0.832396
158      95.5123 1 2 0 100 -1021.83 5.9635
159      95.5123 1 2 0 100 -1021.83 4.81141
160      95.5123 1 2 0 100 -1021.83 3.65933
161      95.5123 1 2 0 100 -1021.83 2.50724
162      95.5123 1 2 0 100 -1021.83 1.35516
163      95.5123 1 2 0 100 -1021.83 0.203073
164      95.5123 1 2 0 100 -1021.83 5.33417
165      95.5123 1 2 0 100 -1021.83 4.18209
166      95.5123 1 2 0 100 -1021.83 3.03
167      95.5123 1 2 0 100 -1021.83 1.87792
168      95.5123 1 2 0 100 -1021.83 0.725834
169      95.5123 1 2 0 100 -1021.83 5.85693
170      95.5123 1 2 0 100 -1021.83 4.70485
171      95.5123 1 2 0 100 -1021.83 3.55276
172      95.5123 1 2 0 100 -1021.83 2.40068
173      95.5123 1 2 0 100 -1021.83 1.24859
174      95.5123 1 2 0 100 -1021.83 0.0965097
175      95.5123 1 2 0 100 -989.901 0
176      95.5123 1 2 0 100 -989.901 0.062015
177      95.5123 1 2 0 100 -989.901 0.12403
178      95.5123 1 2 0 100 -989.901 0.186045
179      95.5123 1 2 0 100 -989.901 0.24806
180      95.5123 1 2 0 100 -989.901 0.310075
181      95.5123 1 2 0 100 -989.901 0.37209
182      95.5123 1 2 0 100 -989.901 0.434105
183      95.5123 1 2 0 100 -989.901 0.49612
184      95.5123 1 2 0 100 -989.901 0.558135
185      95.5123 1 2 0 100 -989.901 0.62015
186      95.5123 1 2 0 100 -989.901 0.682165
187      95.5123 1 2 0 100 -989.901 0.74418
188      95.5123 1 2 0 100 -989.901 0.806196
189      95.5123 1 2 0 100 -989.901 0.868211
190      95.5123 1 2 0 100 -989.901 0.930226
191      95.5123 1 2 0 100 -989.901 0.992241
192      95.5123 1 2 0 100 -989.901 1.05426
193      95.5123 1 2 0 100 -989.901 1.11627
194      95.5123 1 2 0 100 -989.901 1.17829
195      95.5123 1 2 0 100 -989.901 1.2403
196      95.5123 1 2 0 100 -989.901 1.30232
197      95.5123 1 2 0 100 -989.901 1.36433
198      95.5123 1 2 0 100 -989.901 1.42635
199      95.5123 1 2 0 100 -989.901 1.48836
200      95.5123 1 2 0 100 -989.901 1.55038
201      95.5123 1 2 0 100 -989.901 1.61239
202      95.5123 1 2 0 100 -989.901 1.67441
203      95.5123 1 2 0 100 -989.901 1.73642
204      95.5123 1 2 0 100 -989.901 1.79844
205      95.5123 1 2 0 100 -989.901 1.86045
206      95.5123 1 2 0 100 -989.901 1.92247
207      95.5123 1 2 0 100 -989.901 1.98448
208      95.5123 1 2 0 100 -989.901 2.0465
209      95.5123 1 2 0 100 -989.901 2.10851
210      95.5123 1 2 0 100 -989.901 2.17053
211      95.5123 1 2 0 100 -989.901 2.23254
212      95.5123 1 2 0 100 -989.901 2.29456
213      95.5123 1 2 0 100 -989.901 2.35657
214      95.5123 1 2 0 100 -989.901 2.41859
215      95.5123 1 2 0 100 -989.901 2.4806
216      95.5123 1 2 0 100 -989.901 2.54262
217      95.5123 1 2 0 100 -989.901 2.60463
218      95.5123 1 2 0 100 -989.901 2.66665
219      95.5123 1 2 0 100 -989.901 2.72866
220      95.5123 1 2 0 100 -989.901 2.79068
221      95.5123 1 2 0 100 -989.901 2.85269
222      95.5123 1 2 0 100 -989.901 2.91471
223      95.5123 1 2 0 100 -989.901 2.97672
224      95.5123 1 2 0 100 -989.901 3.03874
225      95.5123 1 2 0 100 -957.969 0
226      95.5123 1 2 0 100 -957.969 1.27611
227      95.5123 1 2 0 100 -957.969 2.55223
228      95.5123 1 2 0 100 -957.969 3.82834
229      95.5123 1 2 0 100 -957.969 5.10446
230      95.5123 1 2 0 100 -957.969 0.0973894
231      95.5123 1 2 0 100 -957.969 1.3735
232      95.5123 1 2 0 100 -957.969 2.64962
233      95.5123 1 2 0 100 -957.969 3.92573
234      95.5123 1 2 0 100 -957.969 5.20185
235      95.5123 1 2 0 100 -957.969 0.194779
236      95.5123 1 2 0 100 -957.969 1.47089
237      95.5123 1 2 0 100 -957.969 2.74701
238      95.5123 1 2 0 100 -957.969 4.02312
239      95.5123 1 2 0 100 -957.969 5.29924
240      95.5123 1 2 0 100 -957.969 0.292168
241      95.5123 1 2 0 100 -957.969 1.56828
242      95.5123 1 2 0 100 -957.969 2.8444
243      95.5123 1 2 0 100 -957.969 4.12051
244      95.5123 1 2 0 100 -957.969 5.39663
245      95.5123 1 2 0 100 -957.969 0.389557
246      95.5123 1 2 0 100 -957.969 1.66567
247      95.5123 1 2 0 100 -957.969 2.94179
248      95.5123 1 2 0 100 -957.969 4.2179
249      95.5123 1 2 0 100 -957.969 5.49402
250      95.5123 1 2 0 100 -957.969 0.486947
251      95.5123 1 2 0 100 -957.969 1.76306
252      95.5123 1 2 0 100 -957.969 3.03918
253      95.5123 1 2 0 100 -957.969 4.31529
254      95.5123 1 2 0 100 -957.969 5.59141
255      95.5123 1 2 0 100 -957.969 0.584336
256      95.5123 1 2 0 100 -957.969 1.86045
257      95.5123 1 2 0 100 -957.969 3.13657
258      95.5123 1 2 0 100 -957.969 4.41268
259      95.5123 1 2 0 100 -957.969 5.6888
260      95.5123 1 2 0 100 -957.969 0.681726
261      95.5123 1 2 0 100 -957.969 1.95784
262      95.5123 1 2 0 100 -957.969 3.23396
263      95.5123 1 2 0 100 -957.969 4.51007
264      95.5123 1 2 0 100 -957.969 5.78619
265      95.5123 1 2 0 100 -957.969 0.779115
266      95.5123 1 2 0 100 -957.969 2.05523
267      95.5123 1 2 0 100 -957.969 3.33134
268      95.5123 1 2 0 100 -957.969 4.60746
269      95.5123 1 2 0 100 -957.969 5.88357
270      95.5123 1 2 0 100 -957.969 0.876504
271      95.5123 1 2 0 100 -957.969 2.15262
272      95.5123 1 2 0 100 -957.969 3.42873
273      95.5123 1 2 0 100 -957.969 4.70485
274      95.5123 1 2 0 100 -957.969 5.98096
275      95.5123 1 2 0 100 -926.037 0
276      95.5123 1 2 0 100 -926.037 2.49021
277      95.5123 1 2 0 100 -926.037 4.98043
278      95.5123 1 2 0 100 -926.037 1.18746
279      95.5123 1 2 0 100 -926.037 3.67767
280      95.5123 1 2 0 100 -926.037 6.16789
281      95.5123 1 2 0 100 -926.037 2.37492
282      95.5123 1 2 0 100 -926.037 4.86513
283      95.5123 1 2 0 100 -926.037 1.07216
284      95.5123 1 2 0 100 -926.037 3.56238
285      95.5123 1 2 0 100 -926.037 6.05259
286      95.5123 1 2 0 100 -926.037 2.25962
287      95.5123 1 2 0 100 -926.037 4.74984
288      95.5123 1 2 0 100 -926.037 0.956866
289      95.5123 1 2 0 100 -926.037 3.44708
290      95.5123 1 2 0 100 -926.037 5.9373
291      95.5123 1 2 0 100 -926.037 2.14433
292      95.5123 1 2 0 100 -926.037 4.63454
293      95.5123 1 2 0 100 -926.037 0.84157
294      95.5123 1 2 0 100 -926.037 3.33178
295      95.5123 1 2 0 100 -926.037 5.822
296      95.5123 1 2 0 100 -926.037 2.02903
297      95.5123 1 2 0 100 -926.037 4.51924
298      95.5123 1 2 0 100 -926.037 0.726273
299      95.5123 1 2 0 100 -926.037 3.21649
300      95.5123 1 2 0 100 -926.037 5.7067
301      95.5123 1 2 0 100 -926.037 1.91373
302      95.5123 1 2 0 100 -926.037 4.40395
303      95.5123 1 2 0 100 -926.037 0.610977
304      95.5123 1 2 0 100 -926.037 3.10119
305      95.5123 1 2 0 100 -926.037 5.59141
306      95.5123 1 2 0 100 -926.037 1.79844
307      95.5123 1 2 0 100 -926.037 4.28865
308      95.5123 1 2 0 100 -926.037 0.49568
309      95.5123 1 2 0 100 -926.037 2.9859
310      95.5123 1 2 0 100 -926.037 5.47611
311      95.5123 1 2 0 100 -926.037 1.68314
312      95.5123 1 2 0 100 -926.037 4.17335
313      95.5123 1 2 0 100 -926.037 0.380384
314      95.5123 1 2 0 100 -926.037 2.8706
315      95.5123 1 2 0 100 -926.037 5.36081
316      95.5123 1 2 0 100 -926.037 1.56784
317      95.5123 1 2 0 100 -926.037 4.05806
318      95.5123 1 2 0 100 -926.037 0.265088
319      95.5123 1 2 0 100 -926.037 2.7553
320      95.5123 1 2 0 100 -926.037 5.24552
321      95.5123 1 2 0 100 -926.037 1.45255
322      95.5123 1 2 0 100 -926.037 3.94276
323      95.5123 1 2 0 100 -926.037 0.149791
324      95.5123 1 2 0 100 -926.037 2.64001
325      95.5123 1 2 0 100 -894.104 0
326      95.5123 1 2 0 100 -894.104 3.70431
327      95.5123 1 2 0 100 -894.104 1.12544
328      95.5123 1 2 0 100 -894.104 4.82976
329      95.5123 1 2 0 100 -894.104 2.25089
330      95.5123 1 2 0 100 -894.104 5.9552
331      95.5123 1 2 0 100 -894.104 3.37633
332      95.5123 1 2 0 100 -894.104 0.797462
333      95.5123 1 2 0 100 -894.104 4.50178
334      95.5123 1 2 0 100 -894.104 1.92291
335      95.5123 1 2 0 100 -894.104 5.62722
336      95.5123 1 2 0 100 -894.104 3.04835
337      95.5123 1 2 0 100 -894.104 0.46948
338      95.5123 1 2 0 100 -894.104 4.17379
339      95.5123 1 2 0 100 -894.104 1.59492
340      95.5123 1 2 0 100 -894.104 5.29924
341      95.5123 1 2 0 100 -894.104 2.72037
342      95.5123 1 2 0 100 -894.104 0.141497
343      95.5123 1 2 0 100 -894.104 3.84581
344      95.5123 1 2 0 100 -894.104 1.26694
345      95.5123 1 2 0 100 -894.104 4.97126
346      95.5123 1 2 0 100 -894.104 2.39239
347      95.5123 1 2 0 100 -894.104 6.0967
348      95.5123 1 2 0 100 -894.104 3.51783
349      95.5123 1 2 0 100 -894.104 0.938959
350      95.5123 1 2 0 100 -894.104 4.64327
351      95.5123 1 2 0 100 -894.104 2.0644
352      95.5123 1 2 0 100 -894.104 5.76872
353      95.5123 1 2 0 100 -894.104 3.18985
354      95.5123 1 2 0 100 -894.104 0.610977
355      95.5123 1 2 0 100 -894.104 4.31529
356      95.5123 1 2 0 100 -894.104 1.73642
357      95.5123 1 2 0 100 -894.104 5.44074
358      95.5123 1 2 0 100 -894.104 2.86187
359      95.5123 1 2 0 100 -894.104 0.282995
360      95.5123 1 2 0 100 -894.104 3.98731
361      95.5123 1 2 0 100 -894.104 1.40844
362      95.5123 1 2 0 100 -894.104 5.11275
363      95.5123 1 2 0 100 -894.104 2.53388
364      95.5123 1 2 0 100 -894.104 6.2382
365      95.5123 1 2 0 100 -894.104 3.65933
366      95.5123 1 2 0 100 -894.104 1.08046
367      95.5123 1 2 0 100 -894.104 4.78477
368      95.5123 1 2 0 100 -894.104 2.2059
369      95.5123 1 2 0 100 -894.104 5.91022
370      95.5123 1 2 0 100 -894.104 3.33134
371      95.5123 1 2 0 100 -894.104 0.752474
372      95.5123 1 2 0 100 -894.104 4.45679
373      95.5123 1 2 0 100 -894.104 1.87792
374      95.5123 1 2 0 100 -894.104 5.58223
375      95.5123 1 2 0 100 -862.172 0
376      95.5123 1 2 0 100 -862.172 4.91841
377      95.5123 1 2 0 100 -862.172 3.55364
378      95.5123 1 2 0 100 -862.172 2.18887
379      95.5123 1 2 0 100 -862.172 0.824103
380      95.5123 1 2 0 100 -862.172 5.74252
381      95.5123 1 2 0 100 -862.172 4.37775
382      95.5123 1 2 0 100 -862.172 3.01298
383      95.5123 1 2 0 100 -862.172 1.64821
384      95.5123 1 2 0 100 -862.172 0.283434
385      95.5123 1 2 0 100 -862.172 5.20185
386      95.5123 1 2 0 100 -862.172 3.83708
387      95.5123 1 2 0 100 -862.172 2.47231
388      95.5123 1 2 0 100 -862.172 1.10754
389      95.5123 1 2 0 100 -862.172 6.02595
390      95.5123 1 2 0 100 -862.172 4.66118
391      95.5123 1 2 0 100 -862.172 3.29641
392      95.5123 1 2 0 100 -862.172 1.93164
393      95.5123 1 2 0 100 -862.172 0.566869
394      95.5123 1 2 0 100 -862.172 5.48528
395      95.5123 1 2 0 100 -862.172 4.12051
396      95.5123 1 2 0 100 -862.172 2.75574
397      95.5123 1 2 0 100 -862.172 1.39097
398      95.5123 1 2 0 100 -862.172 0.0262009
399      95.5123 1 2 0 100 -862.172 4.94462
400      95.5123 1 2 0 100 -862.172 3.57984
401      95.5123 1 2 0 100 -862.172 2.21507
402      95.5123 1 2 0 100 -862.172 0.850303
403      95.5123 1 2 0 100 -862.172 5.76872
404      95.5123 1 2 0 100 -862.172 4.40395
405      95.5123 1 2 0 100 -862.172 3.03918
406      95.5123 1 2 0 100 -862.172 1.67441
407      95.5123 1 2 0 100 -862.172 0.309635
408      95.5123 1 2 0 100 -862.172 5.22805
409      95.5123 1 2 0 100 -862.172 3.86328
410      95.5123 1 2 0 100 -862.172 2.49851
411      95.5123 1 2 0 100 -862.172 1.13374
412      95.5123 1 2 0 100 -862.172 6.05215
413      95.5123 1 2 0 100 -862.172 4.68738
414      95.5123 1 2 0 100 -862.172 3.32261
415      95.5123 1 2 0 100 -862.172 1.95784
416      95.5123 1 2 0 100 -862.172 0.59307
417      95.5123 1 2 0 100 -862.172 5.51148
418      95.5123 1 2 0 100 -862.172 4.14671
419      95.5123 1 2 0 100 -862.172 2.78194
420      95.5123 1 2 0 100 -862.172 1.41717
421      95.5123 1 2 0 100 -862.172 0.0524018
422      95.5123 1 2 0 100 -862.172 4.97082
423      95.5123 1 2 0 100 -862.172 3.60605
424      95.5123 1 2 0 100 -862.172 2.24128
425      95.5123 1 2 0 100 -830.24 0
426      95.5123 1 2 0 100 -830.24 6.13251
427      95.5123 1 2 0 100 -830.24 5.98184
428      95.5123 1 2 0 100 -830.24 5.83117
429      95.5123 1 2 0 100 -830.24 5.6805
430      95.5123 1 2 0 100 -830.24 5.52983
431      95.5123 1 2 0 100 -830.24 5.37916
432      95.5123 1 2 0 100 -830.24 5.22849
433      95.5123 1 2 0 100 -830.24 5.07782
434      95.5123 1 2 0 100 -830.24 4.92715
435      95.5123 1 2 0 100 -830.24 4.77648
436      95.5123 1 2 0 100 -830.24 4.62581
437      95.5123 1 2 0 100 -830.24 4.47514
438      95.5123 1 2 0 100 -830.24 4.32447
439      95.5123 1 2 0 100 -830.24 4.17379
440      95.5123 1 2 0 100 -830.24 4.02312
441      95.5123 1 2 0 100 -830.24 3.87245
442      95.5123 1 2 0 100 -830.24 3.72178
443      95.5123 1 2 0 100 -830.24 3.57111
444      95.5123 1 2 0 100 -830.24 3.42044
445      95.5123 1 2 0 100 -830.24 3.26977
446      95.5123 1 2 0 100 -830.24 3.1191
447      95.5123 1 2 0 100 -830.24 2.96843
448      95.5123 1 2 0 100 -830.24 2.81776
449      95.5123 1 2 0 100 -830.24 2.66709
450      95.5123 1 2 0 100 -830.24 2.51642
451      95.5123 1 2 0 100 -830.24 2.36574
452      95.5123 1 2 0 100 -830.24 2.21507
453      95.5123 1 2 0 100 -830.24 2.0644
454      95.5123 1 2 0 100 -830.24 1.91373
455      95.5123 1 2 0 100 -830.24 1.76306
456      95.5123 1 2 0 100 -830.24 1.61239
457      95.5123 1 2 0 100 -830.24 1.46172
458      95.5123 1 2 0 100 -830.24 1.31105
459      95.5123 1 2 0 100 -830.24 1.16038
460      95.5123 1 2 0 100 -830.24 1.00971
461      95.5123 1 2 0 100 -830.24 0.859037
462      95.5123 1 2 0 100 -830.24 0.708366
