# Pulseq sequence file
# Created by PyPulseq

[VERSION]
major 1
minor 4
revision 0

[DEFINITIONS]
AdcRasterTime 1e-07 
BlockDurationRaster 1e-05 
FOV 0.256 0.256 0.16 
Flipangle 10 
GradientRasterTime 1e-05 
RadiofrequencyRasterTime 1e-06 
TE 0.001 
TR 0.01761 
b0 3 
b1 0.8 
delta 2.39996323 
k_space_encoding1 1 
m0_offset -300 
n_dummies_between_offsets 10 
n_k0 1227 
n_readouts_per_slice 2 
n_spirals_for_traj_calculation 12 
name 20250217_BACEST_spiral_multi_2D_256mm_1227k0_16slices_2interleaves_0p1ms_0.8uT_12spirals_10angle 
num_meas 70 
number_of_readouts 256 
offsets_ppm -300 -10 -8 -7.75 -7.5 -7.25 -7 -6.75 -6.5 -6.375 -6.25 -6.125 -6 -5.825 -5.75 -5.675 -5.5 -5.325 -5.25 -5.125 -5 -4.75 -4.5 -4.25 -4 -3.75 -3.5 -3 -2.5 -2 -1.5 -1 -0.75 -0.5 -0.25 0 0.25 0.5 0.75 1 1.5 2 2.5 3 3.5 3.75 4 4.25 4.5 4.75 5 5.125 5.25 5.375 5.5 5.625 5.75 5.825 6 6.125 6.25 6.375 6.5 6.75 7 7.25 7.5 7.75 8 10 
sampling_scheme spiral 
slices 16 
tp 0.1 

# Format of blocks:
# NUM DUR RF  GX  GY  GZ  ADC  EXT
[BLOCKS]
    1 10013   1   0   0   0  0  0
    2 150   0   1   1   1  0  0
    3 128   0   0   0   0  0  0
    4 146   0   0   0   2  0  0
    5 1229   0   3   4   0  0  0
    6  89   0   5   6   7  0  0
    7  11   0   0   0   0  0  0
    8 10013   1   0   0   0  0  0
    9 150   0   1   1   1  0  0
   10 128   0   0   0   0  0  0
   11 146   0   0   0   2  0  0
   12 1229   0   3   4   0  0  0
   13  89   0   5   6   7  0  0
   14  11   0   0   0   0  0  0
   15 10013   1   0   0   0  0  0
   16 150   0   1   1   1  0  0
   17 128   0   0   0   0  0  0
   18 146   0   0   0   2  0  0
   19 1229   0   3   4   0  0  0
   20  89   0   5   6   7  0  0
   21  11   0   0   0   0  0  0
   22 10013   1   0   0   0  0  0
   23 150   0   1   1   1  0  0
   24 128   0   0   0   0  0  0
   25 146   0   0   0   2  0  0
   26 1229   0   3   4   0  0  0
   27  89   0   5   6   7  0  0
   28  11   0   0   0   0  0  0
   29 10013   1   0   0   0  0  0
   30 150   0   1   1   1  0  0
   31 128   0   0   0   0  0  0
   32 146   0   0   0   2  0  0
   33 1229   0   3   4   0  0  0
   34  89   0   5   6   7  0  0
   35  11   0   0   0   0  0  0
   36 10013   1   0   0   0  0  0
   37 150   0   1   1   1  0  0
   38 128   0   0   0   0  0  0
   39 146   0   0   0   2  0  0
   40 1229   0   3   4   0  0  0
   41  89   0   5   6   7  0  0
   42  11   0   0   0   0  0  0
   43 10013   1   0   0   0  0  0
   44 150   0   1   1   1  0  0
   45 128   0   0   0   0  0  0
   46 146   0   0   0   2  0  0
   47 1229   0   3   4   0  0  0
   48  89   0   5   6   7  0  0
   49  11   0   0   0   0  0  0
   50 10013   1   0   0   0  0  0
   51 150   0   1   1   1  0  0
   52 128   0   0   0   0  0  0
   53 146   0   0   0   2  0  0
   54 1229   0   3   4   0  0  0
   55  89   0   5   6   7  0  0
   56  11   0   0   0   0  0  0
   57 10013   1   0   0   0  0  0
   58 150   0   1   1   1  0  0
   59 128   0   0   0   0  0  0
   60 146   0   0   0   2  0  0
   61 1229   0   3   4   0  0  0
   62  89   0   5   6   7  0  0
   63  11   0   0   0   0  0  0
   64 10013   1   0   0   0  0  0
   65 150   0   1   1   1  0  0
   66 128   0   0   0   0  0  0
   67 146   0   0   0   2  0  0
   68 1229   0   3   4   0  0  0
   69  89   0   5   6   7  0  0
   70  11   0   0   0   0  0  0
   71 10013   1   0   0   0  0  0
   72 150   0   1   1   1  0  0
   73 146   2   0   0   2  0  0
   74  46   0   0   0   8  0  0
   75 1229   0   3   4   0  0  0
   76  89   0   5   6   7  0  0
   77  11   0   0   0   0  0  0
   78   1   0   0   0   0  0  0
   79 10013   3   0   0   0  0  0
   80 150   0   1   1   1  0  0
   81 128   0   0   0   0  0  0
   82 1229   0   3   4   0  0  0
   83  89   0   5   6   7  0  0
   84  11   0   0   0   0  0  0
   85   1   0   0   0   0  0  0
   86 10013   4   0   0   0  0  0
   87 150   0   1   1   1  0  0
   88 146   5   0   0   2  0  0
   89  46   0   0   0   8  0  0
   90 1229   0   3   4   0  0  0
   91  89   0   5   6   7  0  0
   92  11   0   0   0   0  0  0
   93   1   0   0   0   0  0  0
   94 10013   6   0   0   0  0  0
   95 150   0   1   1   1  0  0
   96 128   0   0   0   0  0  0
   97 1229   0   3   4   0  0  0
   98  89   0   5   6   7  0  0
   99  11   0   0   0   0  0  0
  100   1   0   0   0   0  0  0
  101 10013   7   0   0   0  0  0
  102 150   0   1   1   1  0  0
  103 128   0   0   0   0  0  0
  104 1229   0   3   4   0  0  0
  105  89   0   5   6   7  0  0
  106  11   0   0   0   0  0  0
  107   1   0   0   0   0  0  0
  108 10013   8   0   0   0  0  0
  109 150   0   1   1   1  0  0
  110 128   0   0   0   0  0  0
  111 1229   0   3   4   0  0  0
  112  89   0   5   6   7  0  0
  113  11   0   0   0   0  0  0
  114   1   0   0   0   0  0  0
  115 10013   9   0   0   0  0  0
  116 150   0   1   1   1  0  0
  117 128   0   0   0   0  0  0
  118 1229   0   3   4   0  0  0
  119  89   0   5   6   7  0  0
  120  11   0   0   0   0  0  0
  121   1   0   0   0   0  0  0
  122 10013  10   0   0   0  0  0
  123 150   0   1   1   1  0  0
  124 128   0   0   0   0  0  0
  125 1229   0   3   4   0  0  0
  126  89   0   5   6   7  0  0
  127  11   0   0   0   0  0  0
  128   1   0   0   0   0  0  0
  129 10013  11   0   0   0  0  0
  130 150   0   1   1   1  0  0
  131 128   0   0   0   0  0  0
  132 1229   0   3   4   0  0  0
  133  89   0   5   6   7  0  0
  134  11   0   0   0   0  0  0
  135   1   0   0   0   0  0  0
  136 10013  12   0   0   0  0  0
  137 150   0   1   1   1  0  0
  138 128   0   0   0   0  0  0
  139 1229   0   3   4   0  0  0
  140  89   0   5   6   7  0  0
  141  11   0   0   0   0  0  0
  142   1   0   0   0   0  0  0
  143 10013   8   0   0   0  0  0
  144 150   0   1   1   1  0  0
  145 128   0   0   0   0  0  0
  146 1229   0   3   4   0  0  0
  147  89   0   5   6   7  0  0
  148  11   0   0   0   0  0  0
  149   1   0   0   0   0  0  0
  150 10013  13   0   0   0  0  0
  151 150   0   1   1   1  0  0
  152 128   0   0   0   0  0  0
  153 1229   0   3   4   0  0  0
  154  89   0   5   6   7  0  0
  155  11   0   0   0   0  0  0
  156   1   0   0   0   0  0  0
  157 10013  14   0   0   0  0  0
  158 150   0   1   1   1  0  0
  159 128   0   0   0   0  0  0
  160 1229   0   3   4   0  0  0
  161  89   0   5   6   7  0  0
  162  11   0   0   0   0  0  0
  163   1   0   0   0   0  0  0
  164 10013  15   0   0   0  0  0
  165 150   0   1   1   1  0  0
  166 128   0   0   0   0  0  0
  167 1229   0   3   4   0  0  0
  168  89   0   5   6   7  0  0
  169  11   0   0   0   0  0  0
  170   1   0   0   0   0  0  0
  171 10013  16   0   0   0  0  0
  172 150   0   1   1   1  0  0
  173 128   0   0   0   0  0  0
  174 1229   0   3   4   0  0  0
  175  89   0   5   6   7  0  0
  176  11   0   0   0   0  0  0
  177   1   0   0   0   0  0  0
  178 10013   1   0   0   0  0  0
  179 150   0   1   1   1  0  0
  180 128   0   0   0   0  0  0
  181 1229   0   3   4   0  0  0
  182  89   0   5   6   7  0  0
  183  11   0   0   0   0  0  0
  184   1   0   0   0   0  0  0
  185 10013  17   0   0   0  0  0
  186 150   0   1   1   1  0  0
  187 146  18   0   0   2  0  0
  188  46   0   0   0   8  0  0
  189 1229   0   9  10   0  0  0
  190  92   0  11  12   7  0  0
  191   8   0   0   0   0  0  0
  192   1   0   0   0   0  0  0
  193 10013  19   0   0   0  0  0
  194 150   0   1   1   1  0  0
  195 128   0   0   0   0  0  0
  196 1229   0   9  10   0  0  0
  197  92   0  11  12   7  0  0
  198   8   0   0   0   0  0  0
  199   1   0   0   0   0  0  0
  200 10013  15   0   0   0  0  0
  201 150   0   1   1   1  0  0
  202 146  20   0   0   2  0  0
  203  46   0   0   0   8  0  0
  204 1229   0   9  10   0  0  0
  205  92   0  11  12   7  0  0
  206   8   0   0   0   0  0  0
  207   1   0   0   0   0  0  0
  208 10013  21   0   0   0  0  0
  209 150   0   1   1   1  0  0
  210 128   0   0   0   0  0  0
  211 1229   0   9  10   0  0  0
  212  92   0  11  12   7  0  0
  213   8   0   0   0   0  0  0
  214   1   0   0   0   0  0  0
  215 10013   7   0   0   0  0  0
  216 150   0   1   1   1  0  0
  217 128   0   0   0   0  0  0
  218 1229   0   9  10   0  0  0
  219  92   0  11  12   7  0  0
  220   8   0   0   0   0  0  0
  221   1   0   0   0   0  0  0
  222 10013  22   0   0   0  0  0
  223 150   0   1   1   1  0  0
  224 128   0   0   0   0  0  0
  225 1229   0   9  10   0  0  0
  226  92   0  11  12   7  0  0
  227   8   0   0   0   0  0  0
  228   1   0   0   0   0  0  0
  229 10013  23   0   0   0  0  0
  230 150   0   1   1   1  0  0
  231 128   0   0   0   0  0  0
  232 1229   0   9  10   0  0  0
  233  92   0  11  12   7  0  0
  234   8   0   0   0   0  0  0
  235   1   0   0   0   0  0  0
  236 10013  11   0   0   0  0  0
  237 150   0   1   1   1  0  0
  238 128   0   0   0   0  0  0
  239 1229   0   9  10   0  0  0
  240  92   0  11  12   7  0  0
  241   8   0   0   0   0  0  0
  242   1   0   0   0   0  0  0
  243 10013  24   0   0   0  0  0
  244 150   0   1   1   1  0  0
  245 128   0   0   0   0  0  0
  246 1229   0   9  10   0  0  0
  247  92   0  11  12   7  0  0
  248   8   0   0   0   0  0  0
  249   1   0   0   0   0  0  0
  250 10013  12   0   0   0  0  0
  251 150   0   1   1   1  0  0
  252 128   0   0   0   0  0  0
  253 1229   0   9  10   0  0  0
  254  92   0  11  12   7  0  0
  255   8   0   0   0   0  0  0
  256   1   0   0   0   0  0  0
  257 10013  22   0   0   0  0  0
  258 150   0   1   1   1  0  0
  259 128   0   0   0   0  0  0
  260 1229   0   9  10   0  0  0
  261  92   0  11  12   7  0  0
  262   8   0   0   0   0  0  0
  263   1   0   0   0   0  0  0
  264 10013  25   0   0   0  0  0
  265 150   0   1   1   1  0  0
  266 128   0   0   0   0  0  0
  267 1229   0   9  10   0  0  0
  268  92   0  11  12   7  0  0
  269   8   0   0   0   0  0  0
  270   1   0   0   0   0  0  0
  271 10013   6   0   0   0  0  0
  272 150   0   1   1   1  0  0
  273 128   0   0   0   0  0  0
  274 1229   0   9  10   0  0  0
  275  92   0  11  12   7  0  0
  276   8   0   0   0   0  0  0
  277   1   0   0   0   0  0  0
[RF]
1      63.6749 1 2 0 100 -38318.8 0
2      85.7162 9 10 0 100 -25000 0
3      63.6749 1 2 0 100 -38318.8 2.04204
4      63.6749 1 2 0 100 -38318.8 6.12611
5      85.7162 9 10 0 100 -21875 6.12611
6      63.6749 1 2 0 100 -38318.8 5.96903
7      63.6749 1 2 0 100 -38318.8 1.5708
8      63.6749 1 2 0 100 -38318.8 5.49779
9      63.6749 1 2 0 100 -38318.8 5.18363
10      63.6749 1 2 0 100 -38318.8 0.628319
11      63.6749 1 2 0 100 -38318.8 4.39823
12      63.6749 1 2 0 100 -38318.8 3.92699
13      63.6749 1 2 0 100 -38318.8 2.82743
14      63.6749 1 2 0 100 -38318.8 2.19911
15      63.6749 1 2 0 100 -38318.8 3.61283
16      63.6749 1 2 0 100 -38318.8 0.785398
17      63.6749 1 2 0 100 -38318.8 1.25664
18      85.7162 9 10 0 100 -25000 1.25664
19      63.6749 1 2 0 100 -38318.8 4.55531
20      85.7162 9 10 0 100 -21875 3.61283
21      63.6749 1 2 0 100 -38318.8 4.71239
22      63.6749 1 2 0 100 -38318.8 0.471239
23      63.6749 1 2 0 100 -38318.8 1.41372
24      63.6749 1 2 0 100 -38318.8 3.14159
25      63.6749 1 2 0 100 -38318.8 5.34071
26      63.6749 1 2 0 100 -38318.8 2.35619
27      63.6749 1 2 0 100 -1277.29 1.25664
28      63.6749 1 2 0 100 -1277.29 3.76991
29      85.7162 9 10 0 100 -25000 3.76991
30      63.6749 1 2 0 100 -1277.29 2.04204
31      63.6749 1 2 0 100 -1277.29 2.35619
32      85.7162 9 10 0 100 -21875 2.35619
33      63.6749 1 2 0 100 -1277.29 4.71239
34      63.6749 1 2 0 100 -1277.29 2.82743
35      63.6749 1 2 0 100 -1277.29 2.98451
36      63.6749 1 2 0 100 -1277.29 5.18363
37      63.6749 1 2 0 100 -1277.29 3.14159
38      63.6749 1 2 0 100 -1277.29 0.785398
39      63.6749 1 2 0 100 -1277.29 5.96903
40      63.6749 1 2 0 100 -1277.29 5.34071
41      63.6749 1 2 0 100 -1277.29 0.471239
42      63.6749 1 2 0 100 -1277.29 3.92699
43      63.6749 1 2 0 100 -1277.29 4.39823
44      63.6749 1 2 0 100 -1277.29 1.41372
45      63.6749 1 2 0 100 -1277.29 1.5708
46      63.6749 1 2 0 100 -1277.29 3.61283
47      63.6749 1 2 0 100 -1277.29 4.55531
48      63.6749 1 2 0 100 -1021.83 1.25664
49      63.6749 1 2 0 100 -1021.83 0
50      63.6749 1 2 0 100 -1021.83 0.785398
51      63.6749 1 2 0 100 -1021.83 3.61283
52      63.6749 1 2 0 100 -1021.83 2.19911
53      63.6749 1 2 0 100 -1021.83 2.82743
54      63.6749 1 2 0 100 -1021.83 5.49779
55      63.6749 1 2 0 100 -1021.83 3.92699
56      63.6749 1 2 0 100 -1021.83 4.39823
57      63.6749 1 2 0 100 -1021.83 0.628319
58      63.6749 1 2 0 100 -1021.83 5.18363
59      63.6749 1 2 0 100 -1021.83 1.5708
60      63.6749 1 2 0 100 -1021.83 5.96903
61      63.6749 1 2 0 100 -1021.83 6.12611
62      63.6749 1 2 0 100 -1021.83 2.04204
63      63.6749 1 2 0 100 -989.901 0
64      63.6749 1 2 0 100 -989.901 1.25664
65      63.6749 1 2 0 100 -989.901 4.55531
66      63.6749 1 2 0 100 -989.901 3.61283
67      63.6749 1 2 0 100 -989.901 4.71239
68      63.6749 1 2 0 100 -989.901 1.5708
69      63.6749 1 2 0 100 -989.901 0.471239
70      63.6749 1 2 0 100 -989.901 1.41372
71      63.6749 1 2 0 100 -989.901 4.39823
72      63.6749 1 2 0 100 -989.901 3.14159
73      63.6749 1 2 0 100 -989.901 3.92699
74      63.6749 1 2 0 100 -989.901 5.34071
75      63.6749 1 2 0 100 -989.901 5.96903
76      63.6749 1 2 0 100 -989.901 2.35619
77      63.6749 1 2 0 100 -989.901 0.785398
78      63.6749 1 2 0 100 -989.901 3.76991
79      63.6749 1 2 0 100 -989.901 2.04204
80      63.6749 1 2 0 100 -989.901 2.82743
81      63.6749 1 2 0 100 -989.901 2.98451
82      63.6749 1 2 0 100 -989.901 5.18363
83      63.6749 1 2 0 100 -957.969 3.76991
84      63.6749 1 2 0 100 -957.969 1.25664
85      63.6749 1 2 0 100 -957.969 0.785398
86      63.6749 1 2 0 100 -957.969 2.35619
87      63.6749 1 2 0 100 -957.969 5.96903
88      63.6749 1 2 0 100 -957.969 5.34071
89      63.6749 1 2 0 100 -957.969 0.471239
90      63.6749 1 2 0 100 -957.969 3.92699
91      63.6749 1 2 0 100 -957.969 3.14159
92      63.6749 1 2 0 100 -957.969 4.39823
93      63.6749 1 2 0 100 -957.969 1.41372
94      63.6749 1 2 0 100 -957.969 1.5708
95      63.6749 1 2 0 100 -957.969 4.71239
96      63.6749 1 2 0 100 -957.969 3.61283
97      63.6749 1 2 0 100 -957.969 4.55531
98      63.6749 1 2 0 100 -957.969 0
99      63.6749 1 2 0 100 -957.969 2.19911
100      63.6749 1 2 0 100 -957.969 2.82743
101      63.6749 1 2 0 100 -957.969 5.49779
102      63.6749 1 2 0 100 -957.969 0.628319
103      63.6749 1 2 0 100 -957.969 5.18363
104      63.6749 1 2 0 100 -957.969 6.12611
105      63.6749 1 2 0 100 -957.969 2.04204
106      63.6749 1 2 0 100 -926.037 0
107      63.6749 1 2 0 100 -926.037 2.04204
108      63.6749 1 2 0 100 -926.037 6.12611
109      63.6749 1 2 0 100 -926.037 5.96903
110      63.6749 1 2 0 100 -926.037 1.5708
111      63.6749 1 2 0 100 -926.037 5.49779
112      63.6749 1 2 0 100 -926.037 5.18363
113      63.6749 1 2 0 100 -926.037 0.628319
114      63.6749 1 2 0 100 -926.037 4.39823
115      63.6749 1 2 0 100 -926.037 3.92699
116      63.6749 1 2 0 100 -926.037 2.82743
117      63.6749 1 2 0 100 -926.037 2.19911
118      63.6749 1 2 0 100 -926.037 3.61283
119      63.6749 1 2 0 100 -926.037 0.785398
120      63.6749 1 2 0 100 -926.037 1.25664
121      63.6749 1 2 0 100 -926.037 4.55531
122      63.6749 1 2 0 100 -926.037 4.71239
123      63.6749 1 2 0 100 -926.037 0.471239
124      63.6749 1 2 0 100 -926.037 1.41372
125      63.6749 1 2 0 100 -926.037 3.14159
126      63.6749 1 2 0 100 -926.037 5.34071
127      63.6749 1 2 0 100 -926.037 2.35619
128      63.6749 1 2 0 100 -894.104 1.25664
129      63.6749 1 2 0 100 -894.104 3.76991
130      63.6749 1 2 0 100 -894.104 2.04204
131      63.6749 1 2 0 100 -894.104 2.35619
132      63.6749 1 2 0 100 -894.104 4.71239
133      63.6749 1 2 0 100 -894.104 2.82743
134      63.6749 1 2 0 100 -894.104 2.98451
135      63.6749 1 2 0 100 -894.104 5.18363
136      63.6749 1 2 0 100 -894.104 3.14159
137      63.6749 1 2 0 100 -894.104 0.785398
138      63.6749 1 2 0 100 -894.104 5.96903
139      63.6749 1 2 0 100 -894.104 5.34071
140      63.6749 1 2 0 100 -894.104 0.471239
141      63.6749 1 2 0 100 -894.104 3.92699
142      63.6749 1 2 0 100 -894.104 4.39823
143      63.6749 1 2 0 100 -894.104 1.41372
144      63.6749 1 2 0 100 -894.104 1.5708
145      63.6749 1 2 0 100 -894.104 3.61283
146      63.6749 1 2 0 100 -894.104 4.55531
147      63.6749 1 2 0 100 -862.172 1.25664
148      63.6749 1 2 0 100 -862.172 0
149      63.6749 1 2 0 100 -862.172 0.785398
150      63.6749 1 2 0 100 -862.172 3.61283
151      63.6749 1 2 0 100 -862.172 2.19911
152      63.6749 1 2 0 100 -862.172 2.82743
153      63.6749 1 2 0 100 -862.172 5.49779
154      63.6749 1 2 0 100 -862.172 3.92699
155      63.6749 1 2 0 100 -862.172 4.39823
156      63.6749 1 2 0 100 -862.172 0.628319
157      63.6749 1 2 0 100 -862.172 5.18363
158      63.6749 1 2 0 100 -862.172 1.5708
159      63.6749 1 2 0 100 -862.172 5.96903
160      63.6749 1 2 0 100 -862.172 6.12611
161      63.6749 1 2 0 100 -862.172 2.04204
162      63.6749 1 2 0 100 -830.24 0
163      63.6749 1 2 0 100 -830.24 1.25664
164      63.6749 1 2 0 100 -830.24 4.55531
165      63.6749 1 2 0 100 -830.24 3.61283
166      63.6749 1 2 0 100 -830.24 4.71239
167      63.6749 1 2 0 100 -830.24 1.5708
168      63.6749 1 2 0 100 -830.24 0.471239
169      63.6749 1 2 0 100 -830.24 1.41372
170      63.6749 1 2 0 100 -830.24 4.39823
171      63.6749 1 2 0 100 -830.24 3.14159
172      63.6749 1 2 0 100 -830.24 3.92699
173      63.6749 1 2 0 100 -830.24 5.34071
174      63.6749 1 2 0 100 -830.24 5.96903
175      63.6749 1 2 0 100 -830.24 2.35619
176      63.6749 1 2 0 100 -830.24 0.785398
177      63.6749 1 2 0 100 -830.24 3.76991
178      63.6749 1 2 0 100 -830.24 2.04204
179      63.6749 1 2 0 100 -830.24 2.82743
180      63.6749 1 2 0 100 -830.24 2.98451
181      63.6749 1 2 0 100 -830.24 5.18363
182      63.6749 1 2 0 100 -814.274 3.76991
183      63.6749 1 2 0 100 -814.274 1.25664
184      63.6749 1 2 0 100 -814.274 0.785398
185      63.6749 1 2 0 100 -814.274 2.35619
186      63.6749 1 2 0 100 -814.274 5.96903
187      63.6749 1 2 0 100 -814.274 5.34071
188      63.6749 1 2 0 100 -814.274 0.471239
189      63.6749 1 2 0 100 -814.274 3.92699
190      63.6749 1 2 0 100 -814.274 3.14159
191      63.6749 1 2 0 100 -814.274 4.39823
192      63.6749 1 2 0 100 -814.274 1.41372
193      63.6749 1 2 0 100 -814.274 1.5708
194      63.6749 1 2 0 100 -814.274 4.71239
195      63.6749 1 2 0 100 -814.274 3.61283
196      63.6749 1 2 0 100 -814.274 4.55531
197      63.6749 1 2 0 100 -814.274 0
198      63.6749 1 2 0 100 -814.274 2.19911
199      63.6749 1 2 0 100 -814.274 2.82743
200      63.6749 1 2 0 100 -814.274 5.49779
201      63.6749 1 2 0 100 -814.274 0.628319
202      63.6749 1 2 0 100 -814.274 5.18363
203      63.6749 1 2 0 100 -814.274 6.12611
204      63.6749 1 2 0 100 -814.274 2.04204
205      63.6749 1 2 0 100 -798.308 0
206      63.6749 1 2 0 100 -798.308 2.04204
207      63.6749 1 2 0 100 -798.308 6.12611
208      63.6749 1 2 0 100 -798.308 5.96903
209      63.6749 1 2 0 100 -798.308 1.5708
210      63.6749 1 2 0 100 -798.308 5.49779
211      63.6749 1 2 0 100 -798.308 5.18363
212      63.6749 1 2 0 100 -798.308 0.628319
213      63.6749 1 2 0 100 -798.308 4.39823
214      63.6749 1 2 0 100 -798.308 3.92699
215      63.6749 1 2 0 100 -798.308 2.82743
216      63.6749 1 2 0 100 -798.308 2.19911
217      63.6749 1 2 0 100 -798.308 3.61283
218      63.6749 1 2 0 100 -798.308 0.785398
219      63.6749 1 2 0 100 -798.308 1.25664
220      63.6749 1 2 0 100 -798.308 4.55531
221      63.6749 1 2 0 100 -798.308 4.71239
222      63.6749 1 2 0 100 -798.308 0.471239
223      63.6749 1 2 0 100 -798.308 1.41372
224      63.6749 1 2 0 100 -798.308 3.14159
225      63.6749 1 2 0 100 -798.308 5.34071
226      63.6749 1 2 0 100 -798.308 2.35619
227      63.6749 1 2 0 100 -782.341 1.25664
228      63.6749 1 2 0 100 -782.341 3.76991
229      63.6749 1 2 0 100 -782.341 2.04204
230      63.6749 1 2 0 100 -782.341 2.35619
231      63.6749 1 2 0 100 -782.341 4.71239
232      63.6749 1 2 0 100 -782.341 2.82743
233      63.6749 1 2 0 100 -782.341 2.98451
234      63.6749 1 2 0 100 -782.341 5.18363
235      63.6749 1 2 0 100 -782.341 3.14159
236      63.6749 1 2 0 100 -782.341 0.785398
237      63.6749 1 2 0 100 -782.341 5.96903
238      63.6749 1 2 0 100 -782.341 5.34071
239      63.6749 1 2 0 100 -782.341 0.471239
240      63.6749 1 2 0 100 -782.341 3.92699
241      63.6749 1 2 0 100 -782.341 4.39823
242      63.6749 1 2 0 100 -782.341 1.41372
243      63.6749 1 2 0 100 -782.341 1.5708
244      63.6749 1 2 0 100 -782.341 3.61283
245      63.6749 1 2 0 100 -782.341 4.55531
246      63.6749 1 2 0 100 -766.375 1.25664
247      63.6749 1 2 0 100 -766.375 0
248      63.6749 1 2 0 100 -766.375 0.785398
249      63.6749 1 2 0 100 -766.375 3.61283
250      63.6749 1 2 0 100 -766.375 2.19911
251      63.6749 1 2 0 100 -766.375 2.82743
252      63.6749 1 2 0 100 -766.375 5.49779
253      63.6749 1 2 0 100 -766.375 3.92699
254      63.6749 1 2 0 100 -766.375 4.39823
255      63.6749 1 2 0 100 -766.375 0.628319
256      63.6749 1 2 0 100 -766.375 5.18363
257      63.6749 1 2 0 100 -766.375 1.5708
258      63.6749 1 2 0 100 -766.375 5.96903
259      63.6749 1 2 0 100 -766.375 6.12611
260      63.6749 1 2 0 100 -766.375 2.04204
261      63.6749 1 2 0 100 -744.023 0
262      63.6749 1 2 0 100 -744.023 1.25664
263      63.6749 1 2 0 100 -744.023 4.55531
264      63.6749 1 2 0 100 -744.023 3.61283
265      63.6749 1 2 0 100 -744.023 4.71239
266      63.6749 1 2 0 100 -744.023 1.5708
267      63.6749 1 2 0 100 -744.023 0.471239
268      63.6749 1 2 0 100 -744.023 1.41372
269      63.6749 1 2 0 100 -744.023 4.39823
270      63.6749 1 2 0 100 -744.023 3.14159
271      63.6749 1 2 0 100 -744.023 3.92699
272      63.6749 1 2 0 100 -744.023 5.34071
273      63.6749 1 2 0 100 -744.023 5.96903
274      63.6749 1 2 0 100 -744.023 2.35619
275      63.6749 1 2 0 100 -744.023 0.785398
276      63.6749 1 2 0 100 -744.023 3.76991
277      63.6749 1 2 0 100 -744.023 2.04204
278      63.6749 1 2 0 100 -744.023 2.82743
279      63.6749 1 2 0 100 -744.023 2.98451
280      63.6749 1 2 0 100 -744.023 5.18363
281      63.6749 1 2 0 100 -734.443 3.76991
282      63.6749 1 2 0 100 -734.443 1.25664
283      63.6749 1 2 0 100 -734.443 0.785398
284      63.6749 1 2 0 100 -734.443 2.35619
285      63.6749 1 2 0 100 -734.443 5.96903
286      63.6749 1 2 0 100 -734.443 5.34071
287      63.6749 1 2 0 100 -734.443 0.471239
288      63.6749 1 2 0 100 -734.443 3.92699
289      63.6749 1 2 0 100 -734.443 3.14159
290      63.6749 1 2 0 100 -734.443 4.39823
291      63.6749 1 2 0 100 -734.443 1.41372
292      63.6749 1 2 0 100 -734.443 1.5708
293      63.6749 1 2 0 100 -734.443 4.71239
294      63.6749 1 2 0 100 -734.443 3.61283
295      63.6749 1 2 0 100 -734.443 4.55531
296      63.6749 1 2 0 100 -734.443 0
297      63.6749 1 2 0 100 -734.443 2.19911
298      63.6749 1 2 0 100 -734.443 2.82743
299      63.6749 1 2 0 100 -734.443 5.49779
300      63.6749 1 2 0 100 -734.443 0.628319
301      63.6749 1 2 0 100 -734.443 5.18363
302      63.6749 1 2 0 100 -734.443 6.12611
303      63.6749 1 2 0 100 -734.443 2.04204
304      63.6749 1 2 0 100 -724.863 0
305      63.6749 1 2 0 100 -724.863 2.04204
306      63.6749 1 2 0 100 -724.863 6.12611
307      63.6749 1 2 0 100 -724.863 5.96903
308      63.6749 1 2 0 100 -724.863 1.5708
309      63.6749 1 2 0 100 -724.863 5.49779
310      63.6749 1 2 0 100 -724.863 5.18363
311      63.6749 1 2 0 100 -724.863 0.628319
312      63.6749 1 2 0 100 -724.863 4.39823
313      63.6749 1 2 0 100 -724.863 3.92699
314      63.6749 1 2 0 100 -724.863 2.82743
315      63.6749 1 2 0 100 -724.863 2.19911
316      63.6749 1 2 0 100 -724.863 3.61283
317      63.6749 1 2 0 100 -724.863 0.785398
318      63.6749 1 2 0 100 -724.863 1.25664
319      63.6749 1 2 0 100 -724.863 4.55531
320      63.6749 1 2 0 100 -724.863 4.71239
321      63.6749 1 2 0 100 -724.863 0.471239
322      63.6749 1 2 0 100 -724.863 1.41372
323      63.6749 1 2 0 100 -724.863 3.14159
324      63.6749 1 2 0 100 -724.863 5.34071
325      63.6749 1 2 0 100 -724.863 2.35619
326      63.6749 1 2 0 100 -702.511 1.25664
327      63.6749 1 2 0 100 -702.511 3.76991
328      63.6749 1 2 0 100 -702.511 2.04204
329      63.6749 1 2 0 100 -702.511 2.35619
330      63.6749 1 2 0 100 -702.511 4.71239
331      63.6749 1 2 0 100 -702.511 2.82743
332      63.6749 1 2 0 100 -702.511 2.98451
333      63.6749 1 2 0 100 -702.511 5.18363
334      63.6749 1 2 0 100 -702.511 3.14159
335      63.6749 1 2 0 100 -702.511 0.785398
336      63.6749 1 2 0 100 -702.511 5.96903
337      63.6749 1 2 0 100 -702.511 5.34071
338      63.6749 1 2 0 100 -702.511 0.471239
339      63.6749 1 2 0 100 -702.511 3.92699
340      63.6749 1 2 0 100 -702.511 4.39823
341      63.6749 1 2 0 100 -702.511 1.41372
342      63.6749 1 2 0 100 -702.511 1.5708
343      63.6749 1 2 0 100 -702.511 3.61283
344      63.6749 1 2 0 100 -702.511 4.55531
345      63.6749 1 2 0 100 -680.158 1.25664
346      63.6749 1 2 0 100 -680.158 0
347      63.6749 1 2 0 100 -680.158 0.785398
348      63.6749 1 2 0 100 -680.158 3.61283
349      63.6749 1 2 0 100 -680.158 2.19911
350      63.6749 1 2 0 100 -680.158 2.82743
351      63.6749 1 2 0 100 -680.158 5.49779
352      63.6749 1 2 0 100 -680.158 3.92699
353      63.6749 1 2 0 100 -680.158 4.39823
354      63.6749 1 2 0 100 -680.158 0.628319
355      63.6749 1 2 0 100 -680.158 5.18363
356      63.6749 1 2 0 100 -680.158 1.5708
357      63.6749 1 2 0 100 -680.158 5.96903
358      63.6749 1 2 0 100 -680.158 6.12611
359      63.6749 1 2 0 100 -680.158 2.04204
360      63.6749 1 2 0 100 -670.578 0
361      63.6749 1 2 0 100 -670.578 1.25664
362      63.6749 1 2 0 100 -670.578 4.55531
363      63.6749 1 2 0 100 -670.578 3.61283
364      63.6749 1 2 0 100 -670.578 4.71239
365      63.6749 1 2 0 100 -670.578 1.5708
366      63.6749 1 2 0 100 -670.578 0.471239
367      63.6749 1 2 0 100 -670.578 1.41372
368      63.6749 1 2 0 100 -670.578 4.39823
369      63.6749 1 2 0 100 -670.578 3.14159
370      63.6749 1 2 0 100 -670.578 3.92699
371      63.6749 1 2 0 100 -670.578 5.34071
372      63.6749 1 2 0 100 -670.578 5.96903
373      63.6749 1 2 0 100 -670.578 2.35619
374      63.6749 1 2 0 100 -670.578 0.785398
375      63.6749 1 2 0 100 -670.578 3.76991
376      63.6749 1 2 0 100 -670.578 2.04204
377      63.6749 1 2 0 100 -670.578 2.82743
378      63.6749 1 2 0 100 -670.578 2.98451
379      63.6749 1 2 0 100 -670.578 5.18363
380      63.6749 1 2 0 100 -654.612 3.76991
381      63.6749 1 2 0 100 -654.612 1.25664
382      63.6749 1 2 0 100 -654.612 0.785398
383      63.6749 1 2 0 100 -654.612 2.35619
384      63.6749 1 2 0 100 -654.612 5.96903
385      63.6749 1 2 0 100 -654.612 5.34071
386      63.6749 1 2 0 100 -654.612 0.471239
387      63.6749 1 2 0 100 -654.612 3.92699
388      63.6749 1 2 0 100 -654.612 3.14159
389      63.6749 1 2 0 100 -654.612 4.39823
390      63.6749 1 2 0 100 -654.612 1.41372
391      63.6749 1 2 0 100 -654.612 1.5708
392      63.6749 1 2 0 100 -654.612 4.71239
393      63.6749 1 2 0 100 -654.612 3.61283
394      63.6749 1 2 0 100 -654.612 4.55531
395      63.6749 1 2 0 100 -654.612 0
396      63.6749 1 2 0 100 -654.612 2.19911
397      63.6749 1 2 0 100 -654.612 2.82743
398      63.6749 1 2 0 100 -654.612 5.49779
399      63.6749 1 2 0 100 -654.612 0.628319
400      63.6749 1 2 0 100 -654.612 5.18363
401      63.6749 1 2 0 100 -654.612 6.12611
402      63.6749 1 2 0 100 -654.612 2.04204
403      63.6749 1 2 0 100 -638.646 0
404      63.6749 1 2 0 100 -638.646 2.04204
405      63.6749 1 2 0 100 -638.646 6.12611
406      63.6749 1 2 0 100 -638.646 5.96903
407      63.6749 1 2 0 100 -638.646 1.5708
408      63.6749 1 2 0 100 -638.646 5.49779
409      63.6749 1 2 0 100 -638.646 5.18363
410      63.6749 1 2 0 100 -638.646 0.628319
411      63.6749 1 2 0 100 -638.646 4.39823
412      63.6749 1 2 0 100 -638.646 3.92699
413      63.6749 1 2 0 100 -638.646 2.82743
414      63.6749 1 2 0 100 -638.646 2.19911
415      63.6749 1 2 0 100 -638.646 3.61283
416      63.6749 1 2 0 100 -638.646 0.785398
417      63.6749 1 2 0 100 -638.646 1.25664
418      63.6749 1 2 0 100 -638.646 4.55531
419      63.6749 1 2 0 100 -638.646 4.71239
420      63.6749 1 2 0 100 -638.646 0.471239
421      63.6749 1 2 0 100 -638.646 1.41372
422      63.6749 1 2 0 100 -638.646 3.14159
423      63.6749 1 2 0 100 -638.646 5.34071
424      63.6749 1 2 0 100 -638.646 2.35619
425      63.6749 1 2 0 100 -606.714 1.25664
426      63.6749 1 2 0 100 -606.714 3.76991
427      63.6749 1 2 0 100 -606.714 2.04204
428      63.6749 1 2 0 100 -606.714 2.35619
429      63.6749 1 2 0 100 -606.714 4.71239
430      63.6749 1 2 0 100 -606.714 2.82743
431      63.6749 1 2 0 100 -606.714 2.98451
432      63.6749 1 2 0 100 -606.714 5.18363
433      63.6749 1 2 0 100 -606.714 3.14159
434      63.6749 1 2 0 100 -606.714 0.785398
435      63.6749 1 2 0 100 -606.714 5.96903
436      63.6749 1 2 0 100 -606.714 5.34071
437      63.6749 1 2 0 100 -606.714 0.471239
438      63.6749 1 2 0 100 -606.714 3.92699
439      63.6749 1 2 0 100 -606.714 4.39823
440      63.6749 1 2 0 100 -606.714 1.41372
441      63.6749 1 2 0 100 -606.714 1.5708
442      63.6749 1 2 0 100 -606.714 3.61283
443      63.6749 1 2 0 100 -606.714 4.55531
444      63.6749 1 2 0 100 -574.781 1.25664
445      63.6749 1 2 0 100 -574.781 0
446      63.6749 1 2 0 100 -574.781 0.785398
447      63.6749 1 2 0 100 -574.781 3.61283
448      63.6749 1 2 0 100 -574.781 2.19911
449      63.6749 1 2 0 100 -574.781 2.82743
450      63.6749 1 2 0 100 -574.781 5.49779
451      63.6749 1 2 0 100 -574.781 3.92699
452      63.6749 1 2 0 100 -574.781 4.39823
453      63.6749 1 2 0 100 -574.781 0.628319
454      63.6749 1 2 0 100 -574.781 5.18363
455      63.6749 1 2 0 100 -574.781 1.5708
456      63.6749 1 2 0 100 -574.781 5.96903
457      63.6749 1 2 0 100 -574.781 6.12611
458      63.6749 1 2 0 100 -574.781 2.04204
459      63.6749 1 2 0 100 -542.849 0
