# Pulseq sequence file
# Created by PyPulseq

[VERSION]
major 1
minor 4
revision 2

[DEFINITIONS]
AdcRasterTime 1e-07 
BlockDurationRaster 1e-05 
FOV 0.256 0.256 0.04 
Flipangle 10 
GradientRasterTime 1e-05 
RadiofrequencyRasterTime 1e-06 
TE 0.001 
TR 0.012020001 
b0 3 
delta 2.39996323 
k_space_encoding1 1 
m0_offset -300 
name 20250327_BACEST_spiral_multi_2D_256mm_12_spirals_731k0_4slices_12interleaves_10dummies_1.2_0p1ms 
num_meas 70 
number_of_readouts 196 
offsets_ppm -300 -10 -8 -7.75 -7.5 -7.25 -7 -6.75 -6.5 -6.375 -6.25 -6.125 -6 -5.825 -5.75 -5.675 -5.5 -5.325 -5.25 -5.125 -5 -4.75 -4.5 -4.25 -4 -3.75 -3.5 -3 -2.5 -2 -1.5 -1 -0.75 -0.5 -0.25 0 0.25 0.5 0.75 1 1.5 2 2.5 3 3.5 3.75 4 4.25 4.5 4.75 5 5.125 5.25 5.375 5.5 5.625 5.75 5.825 6 6.125 6.25 6.375 6.5 6.75 7 7.25 7.5 7.75 8 10 
sampling_scheme spiral 
slices 4 
tp 0.1 

# Format of blocks:
# NUM DUR RF  GX  GY  GZ  ADC  EXT
[BLOCKS]
    1 10013   1   0   0   0  0  0
    2 150   0   1   1   1  0  0
    3 128   0   0   0   0  0  0
    4 146   0   0   0   2  0  0
    5 733   0   3   4   0  0  0
    6  81   0   5   6   7  0  0
    7   0   0   0   0   0  0  0
    8 10013   1   0   0   0  0  0
    9 150   0   1   1   1  0  0
   10 128   0   0   0   0  0  0
   11 146   0   0   0   2  0  0
   12 733   0   3   4   0  0  0
   13  81   0   5   6   7  0  0
   14   0   0   0   0   0  0  0
   15 10013   1   0   0   0  0  0
   16 150   0   1   1   1  0  0
   17 128   0   0   0   0  0  0
   18 146   0   0   0   2  0  0
   19 733   0   3   4   0  0  0
   20  81   0   5   6   7  0  0
   21   0   0   0   0   0  0  0
   22 10013   1   0   0   0  0  0
   23 150   0   1   1   1  0  0
   24 128   0   0   0   0  0  0
   25 146   0   0   0   2  0  0
   26 733   0   3   4   0  0  0
   27  81   0   5   6   7  0  0
   28   0   0   0   0   0  0  0
   29 10013   1   0   0   0  0  0
   30 150   0   1   1   1  0  0
   31 128   0   0   0   0  0  0
   32 146   0   0   0   2  0  0
   33 733   0   3   4   0  0  0
   34  81   0   5   6   7  0  0
   35   0   0   0   0   0  0  0
   36 10013   1   0   0   0  0  0
   37 150   0   1   1   1  0  0
   38 128   0   0   0   0  0  0
   39 146   0   0   0   2  0  0
   40 733   0   3   4   0  0  0
   41  81   0   5   6   7  0  0
   42   0   0   0   0   0  0  0
   43 10013   1   0   0   0  0  0
   44 150   0   1   1   1  0  0
   45 128   0   0   0   0  0  0
   46 146   0   0   0   2  0  0
   47 733   0   3   4   0  0  0
   48  81   0   5   6   7  0  0
   49   0   0   0   0   0  0  0
   50 10013   1   0   0   0  0  0
   51 150   0   1   1   1  0  0
   52 128   0   0   0   0  0  0
   53 146   0   0   0   2  0  0
   54 733   0   3   4   0  0  0
   55  81   0   5   6   7  0  0
   56   0   0   0   0   0  0  0
   57 10013   1   0   0   0  0  0
   58 150   0   1   1   1  0  0
   59 128   0   0   0   0  0  0
   60 146   0   0   0   2  0  0
   61 733   0   3   4   0  0  0
   62  81   0   5   6   7  0  0
   63   0   0   0   0   0  0  0
   64 10013   1   0   0   0  0  0
   65 150   0   1   1   1  0  0
   66 128   0   0   0   0  0  0
   67 146   0   0   0   2  0  0
   68 733   0   3   4   0  0  0
   69  81   0   5   6   7  0  0
   70   0   0   0   0   0  0  0
   71 10013   1   0   0   0  0  0
   72 150   0   1   1   1  0  0
   73 128   0   0   0   0  0  0
   74 146   0   0   0   2  0  0
   75 733   0   3   4   0  0  0
   76  81   0   5   6   7  0  0
   77   0   0   0   0   0  0  0
   78 10013   1   0   0   0  0  0
   79 150   0   1   1   1  0  0
   80 128   0   0   0   0  0  0
   81 146   0   0   0   2  0  0
   82 733   0   3   4   0  0  0
   83  81   0   5   6   7  0  0
   84   0   0   0   0   0  0  0
   85 10013   1   0   0   0  0  0
   86 150   0   1   1   1  0  0
   87 128   0   0   0   0  0  0
   88 146   0   0   0   2  0  0
   89 733   0   3   4   0  0  0
   90  81   0   5   6   7  0  0
   91   0   0   0   0   0  0  0
   92 10013   1   0   0   0  0  0
   93 150   0   1   1   1  0  0
   94 128   0   0   0   0  0  0
   95 146   0   0   0   2  0  0
   96 733   0   3   4   0  0  0
   97  81   0   5   6   7  0  0
   98   0   0   0   0   0  0  0
   99 10013   1   0   0   0  0  0
  100 150   0   1   1   1  0  0
  101 128   0   0   0   0  0  0
  102 146   0   0   0   2  0  0
  103 733   0   3   4   0  0  0
  104  81   0   5   6   7  0  0
  105   0   0   0   0   0  0  0
  106 10013   1   0   0   0  0  0
  107 150   0   1   1   1  0  0
  108 128   0   0   0   0  0  0
  109 146   0   0   0   2  0  0
  110 733   0   3   4   0  0  0
  111  81   0   5   6   7  0  0
  112   0   0   0   0   0  0  0
  113 10013   1   0   0   0  0  0
  114 150   0   1   1   1  0  0
  115 128   0   0   0   0  0  0
  116 146   0   0   0   2  0  0
  117 733   0   3   4   0  0  0
  118  81   0   5   6   7  0  0
  119   0   0   0   0   0  0  0
  120 10013   1   0   0   0  0  0
  121 150   0   1   1   1  0  0
  122 128   0   0   0   0  0  0
  123 146   0   0   0   2  0  0
  124 733   0   3   4   0  0  0
  125  81   0   5   6   7  0  0
  126   0   0   0   0   0  0  0
  127 10013   1   0   0   0  0  0
  128 150   0   1   1   1  0  0
  129 128   0   0   0   0  0  0
  130 146   0   0   0   2  0  0
  131 733   0   3   4   0  0  0
  132  81   0   5   6   7  0  0
  133   0   0   0   0   0  0  0
  134 10013   1   0   0   0  0  0
  135 150   0   1   1   1  0  0
  136 128   0   0   0   0  0  0
  137 146   0   0   0   2  0  0
  138 733   0   3   4   0  0  0
  139  81   0   5   6   7  0  0
  140   0   0   0   0   0  0  0
  141 10013   1   0   0   0  0  0
  142 150   0   1   1   1  0  0
  143 128   0   0   0   0  0  0
  144 146   0   0   0   2  0  0
  145 733   0   3   4   0  0  0
  146  81   0   5   6   7  0  0
  147   0   0   0   0   0  0  0
  148 10013   1   0   0   0  0  0
  149 150   0   1   1   1  0  0
  150 128   0   0   0   0  0  0
  151 146   0   0   0   2  0  0
  152 733   0   3   4   0  0  0
  153  81   0   5   6   7  0  0
  154   0   0   0   0   0  0  0
  155 10013   1   0   0   0  0  0
  156 150   0   1   1   1  0  0
  157 128   0   0   0   0  0  0
  158 146   0   0   0   2  0  0
  159 733   0   3   4   0  0  0
  160  81   0   5   6   7  0  0
  161   0   0   0   0   0  0  0
  162 10013   1   0   0   0  0  0
  163 150   0   1   1   1  0  0
  164 128   0   0   0   0  0  0
  165 146   0   0   0   2  0  0
  166 733   0   3   4   0  0  0
  167  81   0   5   6   7  0  0
  168   0   0   0   0   0  0  0
  169 10013   1   0   0   0  0  0
  170 150   0   1   1   1  0  0
  171 128   0   0   0   0  0  0
  172 146   0   0   0   2  0  0
  173 733   0   3   4   0  0  0
  174  81   0   5   6   7  0  0
  175   0   0   0   0   0  0  0
  176 10013   1   0   0   0  0  0
  177 150   0   1   1   1  0  0
  178 128   0   0   0   0  0  0
  179 146   0   0   0   2  0  0
  180 733   0   3   4   0  0  0
  181  81   0   5   6   7  0  0
  182   0   0   0   0   0  0  0
  183 10013   1   0   0   0  0  0
  184 150   0   1   1   1  0  0
  185 128   0   0   0   0  0  0
  186 146   0   0   0   2  0  0
  187 733   0   3   4   0  0  0
  188  81   0   5   6   7  0  0
  189   0   0   0   0   0  0  0
  190 10013   1   0   0   0  0  0
  191 150   0   1   1   1  0  0
  192 128   0   0   0   0  0  0
  193 146   0   0   0   2  0  0
  194 733   0   3   4   0  0  0
  195  81   0   5   6   7  0  0
  196   0   0   0   0   0  0  0
  197 10013   1   0   0   0  0  0
  198 150   0   1   1   1  0  0
  199 128   0   0   0   0  0  0
  200 146   0   0   0   2  0  0
  201 733   0   3   4   0  0  0
  202  81   0   5   6   7  0  0
  203   0   0   0   0   0  0  0
  204 10013   1   0   0   0  0  0
  205 150   0   1   1   1  0  0
  206 128   0   0   0   0  0  0
  207 146   0   0   0   2  0  0
  208 733   0   3   4   0  0  0
  209  81   0   5   6   7  0  0
  210   0   0   0   0   0  0  0
  211 10013   1   0   0   0  0  0
  212 150   0   1   1   1  0  0
  213 128   0   0   0   0  0  0
  214 146   0   0   0   2  0  0
  215 733   0   3   4   0  0  0
  216  81   0   5   6   7  0  0
  217   0   0   0   0   0  0  0
  218 10013   1   0   0   0  0  0
  219 150   0   1   1   1  0  0
  220 128   0   0   0   0  0  0
  221 146   0   0   0   2  0  0
  222 733   0   3   4   0  0  0
  223  81   0   5   6   7  0  0
  224   0   0   0   0   0  0  0
  225 10013   1   0   0   0  0  0
  226 150   0   1   1   1  0  0
  227 128   0   0   0   0  0  0
  228 146   0   0   0   2  0  0
  229 733   0   3   4   0  0  0
  230  81   0   5   6   7  0  0
  231   0   0   0   0   0  0  0
  232 10013   1   0   0   0  0  0
  233 150   0   1   1   1  0  0
  234 128   0   0   0   0  0  0
  235 146   0   0   0   2  0  0
  236 733   0   3   4   0  0  0
  237  81   0   5   6   7  0  0
  238   0   0   0   0   0  0  0
  239 10013   1   0   0   0  0  0
  240 150   0   1   1   1  0  0
  241 128   0   0   0   0  0  0
  242 146   0   0   0   2  0  0
  243 733   0   3   4   0  0  0
  244  81   0   5   6   7  0  0
  245   0   0   0   0   0  0  0
  246 10013   1   0   0   0  0  0
  247 150   0   1   1   1  0  0
  248 128   0   0   0   0  0  0
  249 146   0   0   0   2  0  0
  250 733   0   3   4   0  0  0
  251  81   0   5   6   7  0  0
  252   0   0   0   0   0  0  0
  253 10013   1   0   0   0  0  0
  254 150   0   1   1   1  0  0
  255 128   0   0   0   0  0  0
  256 146   0   0   0   2  0  0
  257 733   0   3   4   0  0  0
  258  81   0   5   6   7  0  0
  259   0   0   0   0   0  0  0
  260 10013   1   0   0   0  0  0
  261 150   0   1   1   1  0  0
  262 128   0   0   0   0  0  0
  263 146   0   0   0   2  0  0
  264 733   0   3   4   0  0  0
  265  81   0   5   6   7  0  0
  266   0   0   0   0   0  0  0
  267 10013   1   0   0   0  0  0
  268 150   0   1   1   1  0  0
  269 128   0   0   0   0  0  0
  270 146   0   0   0   2  0  0
  271 733   0   3   4   0  0  0
  272  81   0   5   6   7  0  0
  273   0   0   0   0   0  0  0
  274 10013   1   0   0   0  0  0
  275 150   0   1   1   1  0  0
  276 128   0   0   0   0  0  0
  277 146   0   0   0   2  0  0
  278 733   0   3   4   0  0  0
  279  81   0   5   6   7  0  0
  280   0   0   0   0   0  0  0
  281   1   0   0   0   0  0  2
[RF]
1      95.5123 1 2 0 100 -38318.8 0
2      85.7162 9 10 0 100 -6250 0
3      95.5123 1 2 0 100 -38318.8 2.04204
4      85.7162 9 10 0 100 0 2.04204
5      95.5123 1 2 0 100 -38318.8 6.12611
6      85.7162 9 10 0 100 -3125 6.12611
7      95.5123 1 2 0 100 -38318.8 5.96903
8      85.7162 9 10 0 100 3125 5.96903
9      95.5123 1 2 0 100 -38318.8 1.5708
10      85.7162 9 10 0 100 -6250 1.5708
11      95.5123 1 2 0 100 -38318.8 5.49779
12      85.7162 9 10 0 100 0 5.49779
13      95.5123 1 2 0 100 -38318.8 5.18363
14      85.7162 9 10 0 100 -3125 5.18363
15      95.5123 1 2 0 100 -38318.8 0.628319
16      85.7162 9 10 0 100 3125 0.628319
17      95.5123 1 2 0 100 -38318.8 4.39823
18      85.7162 9 10 0 100 -6250 4.39823
19      95.5123 1 2 0 100 -38318.8 3.92699
20      85.7162 9 10 0 100 0 3.92699
21      85.7162 9 10 0 100 -3125 5.49779
22      95.5123 1 2 0 100 -38318.8 2.82743
23      85.7162 9 10 0 100 3125 2.82743
24      95.5123 1 2 0 100 -38318.8 2.19911
25      85.7162 9 10 0 100 -6250 2.19911
26      95.5123 1 2 0 100 -38318.8 3.61283
27      85.7162 9 10 0 100 0 3.61283
28      95.5123 1 2 0 100 -38318.8 0.785398
29      85.7162 9 10 0 100 -3125 0.785398
30      85.7162 9 10 0 100 3125 0
31      95.5123 1 2 0 100 -38318.8 1.25664
32      85.7162 9 10 0 100 -6250 1.25664
33      95.5123 1 2 0 100 -38318.8 4.55531
34      85.7162 9 10 0 100 0 4.55531
35      85.7162 9 10 0 100 -3125 3.61283
36      95.5123 1 2 0 100 -38318.8 4.71239
37      85.7162 9 10 0 100 3125 4.71239
38      95.5123 1 2 0 100 -38318.8 0.471239
39      85.7162 9 10 0 100 0 0.471239
40      95.5123 1 2 0 100 -38318.8 1.41372
41      85.7162 9 10 0 100 -3125 1.41372
42      85.7162 9 10 0 100 3125 4.39823
43      95.5123 1 2 0 100 -38318.8 3.14159
44      85.7162 9 10 0 100 -6250 3.14159
45      85.7162 9 10 0 100 -3125 0.471239
46      95.5123 1 2 0 100 -38318.8 5.34071
47      85.7162 9 10 0 100 3125 5.34071
48      85.7162 9 10 0 100 -6250 5.96903
49      95.5123 1 2 0 100 -38318.8 2.35619
50      85.7162 9 10 0 100 0 2.35619
51      85.7162 9 10 0 100 3125 1.25664
52      95.5123 1 2 0 100 -38318.8 3.76991
53      85.7162 9 10 0 100 -6250 3.76991
54      85.7162 9 10 0 100 -3125 2.35619
55      85.7162 9 10 0 100 -6250 2.82743
56      95.5123 1 2 0 100 -38318.8 2.98451
57      85.7162 9 10 0 100 0 2.98451
58      85.7162 9 10 0 100 3125 3.14159
59      85.7162 9 10 0 100 0 5.18363
60      85.7162 9 10 0 100 -3125 2.98451
61      85.7162 9 10 0 100 -6250 4.71239
62      85.7162 9 10 0 100 -3125 2.04204
63      85.7162 9 10 0 100 3125 3.76991
64      95.5123 1 2 0 100 -1277.29 3.76991
65      95.5123 1 2 0 100 -1277.29 1.25664
66      95.5123 1 2 0 100 -1277.29 0.785398
67      85.7162 9 10 0 100 0 0.785398
68      95.5123 1 2 0 100 -1277.29 2.35619
69      95.5123 1 2 0 100 -1277.29 5.96903
70      95.5123 1 2 0 100 -1277.29 5.34071
71      85.7162 9 10 0 100 -6250 5.34071
72      95.5123 1 2 0 100 -1277.29 0.471239
73      95.5123 1 2 0 100 -1277.29 3.92699
74      85.7162 9 10 0 100 -3125 3.92699
75      95.5123 1 2 0 100 -1277.29 3.14159
76      95.5123 1 2 0 100 -1277.29 4.39823
77      95.5123 1 2 0 100 -1277.29 1.41372
78      85.7162 9 10 0 100 0 1.41372
79      95.5123 1 2 0 100 -1277.29 1.5708
80      85.7162 9 10 0 100 3125 1.5708
81      95.5123 1 2 0 100 -1277.29 4.71239
82      95.5123 1 2 0 100 -1277.29 3.61283
83      95.5123 1 2 0 100 -1277.29 4.55531
84      85.7162 9 10 0 100 -3125 4.55531
85      95.5123 1 2 0 100 -1277.29 0
86      95.5123 1 2 0 100 -1277.29 2.19911
87      85.7162 9 10 0 100 3125 2.19911
88      95.5123 1 2 0 100 -1277.29 2.82743
89      95.5123 1 2 0 100 -1277.29 5.49779
90      95.5123 1 2 0 100 -1277.29 0.628319
91      85.7162 9 10 0 100 -6250 0.628319
92      95.5123 1 2 0 100 -1277.29 5.18363
93      95.5123 1 2 0 100 -1277.29 6.12611
94      85.7162 9 10 0 100 0 6.12611
95      95.5123 1 2 0 100 -1277.29 2.04204
96      95.5123 1 2 0 100 -1021.83 0
97      95.5123 1 2 0 100 -1021.83 1.25664
98      95.5123 1 2 0 100 -1021.83 4.55531
99      95.5123 1 2 0 100 -1021.83 3.61283
100      95.5123 1 2 0 100 -1021.83 4.71239
101      95.5123 1 2 0 100 -1021.83 1.5708
102      95.5123 1 2 0 100 -1021.83 0.471239
103      95.5123 1 2 0 100 -1021.83 1.41372
104      95.5123 1 2 0 100 -1021.83 4.39823
105      95.5123 1 2 0 100 -1021.83 3.14159
106      95.5123 1 2 0 100 -1021.83 3.92699
107      95.5123 1 2 0 100 -1021.83 5.34071
108      95.5123 1 2 0 100 -1021.83 5.96903
109      95.5123 1 2 0 100 -1021.83 2.35619
110      95.5123 1 2 0 100 -1021.83 0.785398
111      95.5123 1 2 0 100 -1021.83 3.76991
112      95.5123 1 2 0 100 -1021.83 2.04204
113      95.5123 1 2 0 100 -1021.83 2.82743
114      95.5123 1 2 0 100 -1021.83 2.98451
115      95.5123 1 2 0 100 -1021.83 5.18363
116      95.5123 1 2 0 100 -989.901 1.25664
117      95.5123 1 2 0 100 -989.901 0
118      95.5123 1 2 0 100 -989.901 0.785398
119      95.5123 1 2 0 100 -989.901 3.61283
120      95.5123 1 2 0 100 -989.901 2.19911
121      95.5123 1 2 0 100 -989.901 2.82743
122      95.5123 1 2 0 100 -989.901 5.49779
123      95.5123 1 2 0 100 -989.901 3.92699
124      95.5123 1 2 0 100 -989.901 4.39823
125      95.5123 1 2 0 100 -989.901 0.628319
126      95.5123 1 2 0 100 -989.901 5.18363
127      95.5123 1 2 0 100 -989.901 1.5708
128      95.5123 1 2 0 100 -989.901 5.96903
129      95.5123 1 2 0 100 -989.901 6.12611
130      95.5123 1 2 0 100 -989.901 2.04204
131      95.5123 1 2 0 100 -989.901 4.55531
132      95.5123 1 2 0 100 -989.901 4.71239
133      95.5123 1 2 0 100 -989.901 0.471239
134      95.5123 1 2 0 100 -989.901 1.41372
135      95.5123 1 2 0 100 -989.901 3.14159
136      95.5123 1 2 0 100 -989.901 5.34071
137      95.5123 1 2 0 100 -989.901 2.35619
138      95.5123 1 2 0 100 -957.969 1.25664
139      95.5123 1 2 0 100 -957.969 3.76991
140      95.5123 1 2 0 100 -957.969 2.04204
141      95.5123 1 2 0 100 -957.969 2.35619
142      95.5123 1 2 0 100 -957.969 4.71239
143      95.5123 1 2 0 100 -957.969 2.82743
144      95.5123 1 2 0 100 -957.969 2.98451
145      95.5123 1 2 0 100 -957.969 5.18363
146      95.5123 1 2 0 100 -957.969 3.14159
147      95.5123 1 2 0 100 -957.969 0.785398
148      95.5123 1 2 0 100 -957.969 5.96903
149      95.5123 1 2 0 100 -957.969 5.34071
150      95.5123 1 2 0 100 -957.969 0.471239
151      95.5123 1 2 0 100 -957.969 3.92699
152      95.5123 1 2 0 100 -957.969 4.39823
153      95.5123 1 2 0 100 -957.969 1.41372
154      95.5123 1 2 0 100 -957.969 1.5708
155      95.5123 1 2 0 100 -957.969 3.61283
156      95.5123 1 2 0 100 -957.969 4.55531
157      95.5123 1 2 0 100 -957.969 0
158      95.5123 1 2 0 100 -957.969 2.19911
159      95.5123 1 2 0 100 -957.969 5.49779
160      95.5123 1 2 0 100 -957.969 0.628319
161      95.5123 1 2 0 100 -957.969 6.12611
162      95.5123 1 2 0 100 -926.037 0
163      95.5123 1 2 0 100 -926.037 2.04204
164      95.5123 1 2 0 100 -926.037 6.12611
165      95.5123 1 2 0 100 -926.037 5.96903
166      95.5123 1 2 0 100 -926.037 1.5708
167      95.5123 1 2 0 100 -926.037 5.49779
168      95.5123 1 2 0 100 -926.037 5.18363
169      95.5123 1 2 0 100 -926.037 0.628319
170      95.5123 1 2 0 100 -926.037 4.39823
171      95.5123 1 2 0 100 -926.037 3.92699
172      95.5123 1 2 0 100 -926.037 2.82743
173      95.5123 1 2 0 100 -926.037 2.19911
174      95.5123 1 2 0 100 -926.037 3.61283
175      95.5123 1 2 0 100 -926.037 0.785398
176      95.5123 1 2 0 100 -926.037 1.25664
177      95.5123 1 2 0 100 -926.037 4.55531
178      95.5123 1 2 0 100 -926.037 4.71239
179      95.5123 1 2 0 100 -926.037 0.471239
180      95.5123 1 2 0 100 -926.037 1.41372
181      95.5123 1 2 0 100 -926.037 3.14159
182      95.5123 1 2 0 100 -926.037 5.34071
183      95.5123 1 2 0 100 -926.037 2.35619
184      95.5123 1 2 0 100 -926.037 3.76991
185      95.5123 1 2 0 100 -926.037 2.98451
186      95.5123 1 2 0 100 -894.104 3.76991
187      95.5123 1 2 0 100 -894.104 1.25664
188      95.5123 1 2 0 100 -894.104 0.785398
189      95.5123 1 2 0 100 -894.104 2.35619
190      95.5123 1 2 0 100 -894.104 5.96903
191      95.5123 1 2 0 100 -894.104 5.34071
192      95.5123 1 2 0 100 -894.104 0.471239
193      95.5123 1 2 0 100 -894.104 3.92699
194      95.5123 1 2 0 100 -894.104 3.14159
195      95.5123 1 2 0 100 -894.104 4.39823
196      95.5123 1 2 0 100 -894.104 1.41372
197      95.5123 1 2 0 100 -894.104 1.5708
198      95.5123 1 2 0 100 -894.104 4.71239
199      95.5123 1 2 0 100 -894.104 3.61283
200      95.5123 1 2 0 100 -894.104 4.55531
201      95.5123 1 2 0 100 -894.104 0
202      95.5123 1 2 0 100 -894.104 2.19911
203      95.5123 1 2 0 100 -894.104 2.82743
204      95.5123 1 2 0 100 -894.104 5.49779
205      95.5123 1 2 0 100 -894.104 0.628319
206      95.5123 1 2 0 100 -894.104 5.18363
207      95.5123 1 2 0 100 -894.104 6.12611
208      95.5123 1 2 0 100 -894.104 2.04204
209      95.5123 1 2 0 100 -862.172 0
210      95.5123 1 2 0 100 -862.172 1.25664
211      95.5123 1 2 0 100 -862.172 4.55531
212      95.5123 1 2 0 100 -862.172 3.61283
213      95.5123 1 2 0 100 -862.172 4.71239
214      95.5123 1 2 0 100 -862.172 1.5708
215      95.5123 1 2 0 100 -862.172 0.471239
216      95.5123 1 2 0 100 -862.172 1.41372
217      95.5123 1 2 0 100 -862.172 4.39823
218      95.5123 1 2 0 100 -862.172 3.14159
219      95.5123 1 2 0 100 -862.172 3.92699
220      95.5123 1 2 0 100 -862.172 5.34071
221      95.5123 1 2 0 100 -862.172 5.96903
222      95.5123 1 2 0 100 -862.172 2.35619
223      95.5123 1 2 0 100 -862.172 0.785398
224      95.5123 1 2 0 100 -862.172 3.76991
225      95.5123 1 2 0 100 -862.172 2.04204
226      95.5123 1 2 0 100 -862.172 2.82743
227      95.5123 1 2 0 100 -862.172 2.98451
228      95.5123 1 2 0 100 -862.172 5.18363
229      95.5123 1 2 0 100 -830.24 1.25664
230      95.5123 1 2 0 100 -830.24 0
231      95.5123 1 2 0 100 -830.24 0.785398
232      95.5123 1 2 0 100 -830.24 3.61283
233      95.5123 1 2 0 100 -830.24 2.19911
234      95.5123 1 2 0 100 -830.24 2.82743
235      95.5123 1 2 0 100 -830.24 5.49779
236      95.5123 1 2 0 100 -830.24 3.92699
237      95.5123 1 2 0 100 -830.24 4.39823
238      95.5123 1 2 0 100 -830.24 0.628319
239      95.5123 1 2 0 100 -830.24 5.18363
240      95.5123 1 2 0 100 -830.24 1.5708
241      95.5123 1 2 0 100 -830.24 5.96903
242      95.5123 1 2 0 100 -830.24 6.12611
243      95.5123 1 2 0 100 -830.24 2.04204
244      95.5123 1 2 0 100 -830.24 4.55531
245      95.5123 1 2 0 100 -830.24 4.71239
246      95.5123 1 2 0 100 -830.24 0.471239
247      95.5123 1 2 0 100 -830.24 1.41372
248      95.5123 1 2 0 100 -830.24 3.14159
249      95.5123 1 2 0 100 -830.24 5.34071
250      95.5123 1 2 0 100 -830.24 2.35619
251      95.5123 1 2 0 100 -814.274 1.25664
252      95.5123 1 2 0 100 -814.274 3.76991
253      95.5123 1 2 0 100 -814.274 2.04204
254      95.5123 1 2 0 100 -814.274 2.35619
255      95.5123 1 2 0 100 -814.274 4.71239
256      95.5123 1 2 0 100 -814.274 2.82743
257      95.5123 1 2 0 100 -814.274 2.98451
258      95.5123 1 2 0 100 -814.274 5.18363
259      95.5123 1 2 0 100 -814.274 3.14159
260      95.5123 1 2 0 100 -814.274 0.785398
261      95.5123 1 2 0 100 -814.274 5.96903
262      95.5123 1 2 0 100 -814.274 5.34071
263      95.5123 1 2 0 100 -814.274 0.471239
264      95.5123 1 2 0 100 -814.274 3.92699
265      95.5123 1 2 0 100 -814.274 4.39823
266      95.5123 1 2 0 100 -814.274 1.41372
267      95.5123 1 2 0 100 -814.274 1.5708
268      95.5123 1 2 0 100 -814.274 3.61283
269      95.5123 1 2 0 100 -814.274 4.55531
270      95.5123 1 2 0 100 -814.274 0
271      95.5123 1 2 0 100 -814.274 2.19911
272      95.5123 1 2 0 100 -814.274 5.49779
273      95.5123 1 2 0 100 -814.274 0.628319
274      95.5123 1 2 0 100 -814.274 6.12611
275      95.5123 1 2 0 100 -798.308 0
276      95.5123 1 2 0 100 -798.308 2.04204
277      95.5123 1 2 0 100 -798.308 6.12611
278      95.5123 1 2 0 100 -798.308 5.96903
279      95.5123 1 2 0 100 -798.308 1.5708
280      95.5123 1 2 0 100 -798.308 5.49779
281      95.5123 1 2 0 100 -798.308 5.18363
282      95.5123 1 2 0 100 -798.308 0.628319
283      95.5123 1 2 0 100 -798.308 4.39823
284      95.5123 1 2 0 100 -798.308 3.92699
285      95.5123 1 2 0 100 -798.308 2.82743
286      95.5123 1 2 0 100 -798.308 2.19911
287      95.5123 1 2 0 100 -798.308 3.61283
288      95.5123 1 2 0 100 -798.308 0.785398
289      95.5123 1 2 0 100 -798.308 1.25664
290      95.5123 1 2 0 100 -798.308 4.55531
291      95.5123 1 2 0 100 -798.308 4.71239
292      95.5123 1 2 0 100 -798.308 0.471239
293      95.5123 1 2 0 100 -798.308 1.41372
294      95.5123 1 2 0 100 -798.308 3.14159
295      95.5123 1 2 0 100 -798.308 5.34071
296      95.5123 1 2 0 100 -798.308 2.35619
297      95.5123 1 2 0 100 -798.308 3.76991
298      95.5123 1 2 0 100 -798.308 2.98451
299      95.5123 1 2 0 100 -782.341 3.76991
300      95.5123 1 2 0 100 -782.341 1.25664
301      95.5123 1 2 0 100 -782.341 0.785398
302      95.5123 1 2 0 100 -782.341 2.35619
303      95.5123 1 2 0 100 -782.341 5.96903
304      95.5123 1 2 0 100 -782.341 5.34071
305      95.5123 1 2 0 100 -782.341 0.471239
306      95.5123 1 2 0 100 -782.341 3.92699
307      95.5123 1 2 0 100 -782.341 3.14159
308      95.5123 1 2 0 100 -782.341 4.39823
309      95.5123 1 2 0 100 -782.341 1.41372
310      95.5123 1 2 0 100 -782.341 1.5708
311      95.5123 1 2 0 100 -782.341 4.71239
312      95.5123 1 2 0 100 -782.341 3.61283
313      95.5123 1 2 0 100 -782.341 4.55531
314      95.5123 1 2 0 100 -782.341 0
315      95.5123 1 2 0 100 -782.341 2.19911
316      95.5123 1 2 0 100 -782.341 2.82743
317      95.5123 1 2 0 100 -782.341 5.49779
318      95.5123 1 2 0 100 -782.341 0.628319
319      95.5123 1 2 0 100 -782.341 5.18363
320      95.5123 1 2 0 100 -782.341 6.12611
321      95.5123 1 2 0 100 -782.341 2.04204
322      95.5123 1 2 0 100 -766.375 0
323      95.5123 1 2 0 100 -766.375 1.25664
324      95.5123 1 2 0 100 -766.375 4.55531
325      95.5123 1 2 0 100 -766.375 3.61283
326      95.5123 1 2 0 100 -766.375 4.71239
327      95.5123 1 2 0 100 -766.375 1.5708
328      95.5123 1 2 0 100 -766.375 0.471239
329      95.5123 1 2 0 100 -766.375 1.41372
330      95.5123 1 2 0 100 -766.375 4.39823
331      95.5123 1 2 0 100 -766.375 3.14159
332      95.5123 1 2 0 100 -766.375 3.92699
333      95.5123 1 2 0 100 -766.375 5.34071
334      95.5123 1 2 0 100 -766.375 5.96903
335      95.5123 1 2 0 100 -766.375 2.35619
336      95.5123 1 2 0 100 -766.375 0.785398
337      95.5123 1 2 0 100 -766.375 3.76991
338      95.5123 1 2 0 100 -766.375 2.04204
339      95.5123 1 2 0 100 -766.375 2.82743
340      95.5123 1 2 0 100 -766.375 2.98451
341      95.5123 1 2 0 100 -766.375 5.18363
342      95.5123 1 2 0 100 -744.023 1.25664
343      95.5123 1 2 0 100 -744.023 0
344      95.5123 1 2 0 100 -744.023 0.785398
345      95.5123 1 2 0 100 -744.023 3.61283
346      95.5123 1 2 0 100 -744.023 2.19911
347      95.5123 1 2 0 100 -744.023 2.82743
348      95.5123 1 2 0 100 -744.023 5.49779
349      95.5123 1 2 0 100 -744.023 3.92699
350      95.5123 1 2 0 100 -744.023 4.39823
351      95.5123 1 2 0 100 -744.023 0.628319
352      95.5123 1 2 0 100 -744.023 5.18363
353      95.5123 1 2 0 100 -744.023 1.5708
354      95.5123 1 2 0 100 -744.023 5.96903
355      95.5123 1 2 0 100 -744.023 6.12611
356      95.5123 1 2 0 100 -744.023 2.04204
357      95.5123 1 2 0 100 -744.023 4.55531
358      95.5123 1 2 0 100 -744.023 4.71239
359      95.5123 1 2 0 100 -744.023 0.471239
360      95.5123 1 2 0 100 -744.023 1.41372
361      95.5123 1 2 0 100 -744.023 3.14159
362      95.5123 1 2 0 100 -744.023 5.34071
363      95.5123 1 2 0 100 -744.023 2.35619
364      95.5123 1 2 0 100 -734.443 1.25664
365      95.5123 1 2 0 100 -734.443 3.76991
366      95.5123 1 2 0 100 -734.443 2.04204
367      95.5123 1 2 0 100 -734.443 2.35619
368      95.5123 1 2 0 100 -734.443 4.71239
369      95.5123 1 2 0 100 -734.443 2.82743
370      95.5123 1 2 0 100 -734.443 2.98451
371      95.5123 1 2 0 100 -734.443 5.18363
372      95.5123 1 2 0 100 -734.443 3.14159
373      95.5123 1 2 0 100 -734.443 0.785398
374      95.5123 1 2 0 100 -734.443 5.96903
375      95.5123 1 2 0 100 -734.443 5.34071
376      95.5123 1 2 0 100 -734.443 0.471239
377      95.5123 1 2 0 100 -734.443 3.92699
378      95.5123 1 2 0 100 -734.443 4.39823
379      95.5123 1 2 0 100 -734.443 1.41372
380      95.5123 1 2 0 100 -734.443 1.5708
381      95.5123 1 2 0 100 -734.443 3.61283
382      95.5123 1 2 0 100 -734.443 4.55531
383      95.5123 1 2 0 100 -734.443 0
384      95.5123 1 2 0 100 -734.443 2.19911
385      95.5123 1 2 0 100 -734.443 5.49779
386      95.5123 1 2 0 100 -734.443 0.628319
387      95.5123 1 2 0 100 -734.443 6.12611
388      95.5123 1 2 0 100 -724.863 0
389      95.5123 1 2 0 100 -724.863 2.04204
390      95.5123 1 2 0 100 -724.863 6.12611
391      95.5123 1 2 0 100 -724.863 5.96903
392      95.5123 1 2 0 100 -724.863 1.5708
393      95.5123 1 2 0 100 -724.863 5.49779
394      95.5123 1 2 0 100 -724.863 5.18363
395      95.5123 1 2 0 100 -724.863 0.628319
396      95.5123 1 2 0 100 -724.863 4.39823
397      95.5123 1 2 0 100 -724.863 3.92699
398      95.5123 1 2 0 100 -724.863 2.82743
399      95.5123 1 2 0 100 -724.863 2.19911
400      95.5123 1 2 0 100 -724.863 3.61283
401      95.5123 1 2 0 100 -724.863 0.785398
402      95.5123 1 2 0 100 -724.863 1.25664
403      95.5123 1 2 0 100 -724.863 4.55531
404      95.5123 1 2 0 100 -724.863 4.71239
405      95.5123 1 2 0 100 -724.863 0.471239
406      95.5123 1 2 0 100 -724.863 1.41372
407      95.5123 1 2 0 100 -724.863 3.14159
408      95.5123 1 2 0 100 -724.863 5.34071
409      95.5123 1 2 0 100 -724.863 2.35619
410      95.5123 1 2 0 100 -724.863 3.76991
411      95.5123 1 2 0 100 -724.863 2.98451
412      95.5123 1 2 0 100 -702.511 3.76991
413      95.5123 1 2 0 100 -702.511 1.25664
414      95.5123 1 2 0 100 -702.511 0.785398
415      95.5123 1 2 0 100 -702.511 2.35619
416      95.5123 1 2 0 100 -702.511 5.96903
417      95.5123 1 2 0 100 -702.511 5.34071
418      95.5123 1 2 0 100 -702.511 0.471239
419      95.5123 1 2 0 100 -702.511 3.92699
420      95.5123 1 2 0 100 -702.511 3.14159
421      95.5123 1 2 0 100 -702.511 4.39823
422      95.5123 1 2 0 100 -702.511 1.41372
423      95.5123 1 2 0 100 -702.511 1.5708
424      95.5123 1 2 0 100 -702.511 4.71239
425      95.5123 1 2 0 100 -702.511 3.61283
426      95.5123 1 2 0 100 -702.511 4.55531
427      95.5123 1 2 0 100 -702.511 0
428      95.5123 1 2 0 100 -702.511 2.19911
429      95.5123 1 2 0 100 -702.511 2.82743
430      95.5123 1 2 0 100 -702.511 5.49779
431      95.5123 1 2 0 100 -702.511 0.628319
432      95.5123 1 2 0 100 -702.511 5.18363
433      95.5123 1 2 0 100 -702.511 6.12611
434      95.5123 1 2 0 100 -702.511 2.04204
435      95.5123 1 2 0 100 -680.158 0
436      95.5123 1 2 0 100 -680.158 1.25664
437      95.5123 1 2 0 100 -680.158 4.55531
438      95.5123 1 2 0 100 -680.158 3.61283
439      95.5123 1 2 0 100 -680.158 4.71239
440      95.5123 1 2 0 100 -680.158 1.5708
441      95.5123 1 2 0 100 -680.158 0.471239
442      95.5123 1 2 0 100 -680.158 1.41372
443      95.5123 1 2 0 100 -680.158 4.39823
444      95.5123 1 2 0 100 -680.158 3.14159
445      95.5123 1 2 0 100 -680.158 3.92699
446      95.5123 1 2 0 100 -680.158 5.34071
447      95.5123 1 2 0 100 -680.158 5.96903
448      95.5123 1 2 0 100 -680.158 2.35619
449      95.5123 1 2 0 100 -680.158 0.785398
450      95.5123 1 2 0 100 -680.158 3.76991
451      95.5123 1 2 0 100 -680.158 2.04204
452      95.5123 1 2 0 100 -680.158 2.82743
453      95.5123 1 2 0 100 -680.158 2.98451
454      95.5123 1 2 0 100 -680.158 5.18363
455      95.5123 1 2 0 100 -670.578 1.25664
456      95.5123 1 2 0 100 -670.578 0
457      95.5123 1 2 0 100 -670.578 0.785398
458      95.5123 1 2 0 100 -670.578 3.61283
459      95.5123 1 2 0 100 -670.578 2.19911
460      95.5123 1 2 0 100 -670.578 2.82743
461      95.5123 1 2 0 100 -670.578 5.49779
462      95.5123 1 2 0 100 -670.578 3.92699
